波長 (nm),0 mV,50 mV,100 mV,150 mV,200 mV,300 mV,400 mV,500 mV,600 mV,700 mV,800 mV,100-0,200-100,300-200,400-300,500-400,600-500,700-600,800-700,800 - 500,500 - 300,Raw data name,Mod column name
300,0.018,0.001,0.05,0.024,0.055,-0.001,0.071,0.072,0.035,0.037,0.014,0.032,0.005,-0.056,0.072,0.001,-0.037,0.002,-0.023,-0.058,0.073,20221215_1-140_006_0mV.spc - RawData,0 mV
301,-0.047,-0.054,-0.077,-0.086,-0.073,-0.073,-0.067,-0.032,-0.06,-0.068,-0.047,-0.03,0.004,0,0.006,0.035,-0.028,-0.008,0.021,-0.015,0.042,20221215_1-140_007_300mV.spc - RawData,300 mV
302,0.015,0.002,-0.049,0.036,0.021,0.029,0.004,-0.005,0.019,0.027,0.043,-0.064,0.07,0.008,-0.025,-0.009,0.024,0.008,0.016,0.049,-0.035,20221215_1-140_008_100mV.spc - RawData,100 mV
303,0.019,-0.026,0.028,-0.012,-0.001,0.032,-0.003,0.034,0.009,0.014,-0.011,0.009,-0.029,0.033,-0.035,0.037,-0.025,0.005,-0.025,-0.045,0.002,20221215_1-140_009_50mV.spc - RawData,50 mV
304,0.017,0.027,0.032,0.036,0.009,0.035,0.045,0.019,0.043,0.04,0.034,0.015,-0.023,0.026,0.01,-0.026,0.024,-0.003,-0.006,0.015,-0.016,20221215_1-140_010_200mV.spc - RawData,200 mV
305,-0.017,0.02,0.002,-0.02,-0.006,-0.009,0,-0.017,0.031,-0.001,-0.01,0.019,-0.008,-0.003,0.009,-0.017,0.048,-0.032,-0.009,0.007,-0.008,20221215_1-140_011_150mV.spc - RawData,150 mV
306,-0.015,-0.017,-0.02,-0.025,0.005,-0.024,0.012,0.014,0.001,-0.02,0.006,-0.005,0.025,-0.029,0.036,0.002,-0.013,-0.021,0.026,-0.008,0.038,20221215_1-140_012_400mV.spc - RawData,400 mV
307,0.026,0.022,0.044,0.013,0.005,0.014,0.049,0.022,0.055,0.046,0.028,0.018,-0.039,0.009,0.035,-0.027,0.033,-0.009,-0.018,0.006,0.008,20221215_1-140_013_500mV.spc - RawData,500 mV
308,0.004,-0.008,-0.053,0.023,0.018,0.007,0.006,0.032,0.008,-0.008,0.001,-0.057,0.071,-0.011,-0.001,0.026,-0.024,-0.016,0.009,-0.03,0.025,20221215_1-140_014_600mV.spc - RawData,600 mV
309,0.04,0.052,0.014,0.055,0.063,0.041,0.09,0.05,0.026,0.035,0.045,-0.026,0.049,-0.022,0.049,-0.04,-0.024,0.009,0.01,-0.006,0.009,20221215_1-140_016_700mV.spc - RawData,700 mV
310,0.024,0.022,0.037,0.056,0.039,-0.012,0.051,0.05,0.082,0.05,0.053,0.013,0.002,-0.051,0.063,-0.001,0.032,-0.032,0.003,0.003,0.062,20221215_1-140_017_800mV.spc - RawData,800 mV
311,-0.01,-0.003,0.023,0.016,0.004,0.021,0.02,0.02,0.024,0.022,0.033,0.033,-0.019,0.017,-0.001,0,0.004,-0.002,0.011,0.014,-0.002,20221215_1-140_017_800mV.spc - 800 mV - 500 mV,800 - 500
312,0.004,-0.009,0.002,0.04,0.037,0.04,0.016,0.047,0.014,0.027,0.001,-0.002,0.035,0.003,-0.024,0.031,-0.033,0.013,-0.026,-0.046,0.007,20221215_1-140_013_500mV.spc - 500 mV - 300 mV,500 - 300
313,0.009,0.016,0.025,-0.006,0.014,0.034,0.08,0.056,0.007,0.022,0.026,0.016,-0.011,0.02,0.046,-0.024,-0.049,0.015,0.004,-0.03,0.021,,100-0
314,0.029,0.011,0.022,0.022,-0.003,0.044,0.055,0.035,0.015,0.049,0.035,-0.007,-0.025,0.047,0.011,-0.02,-0.02,0.034,-0.014,0,-0.009,,200-100
315,-0.027,-0.005,-0.002,0.005,0.014,0.02,0.019,-0.004,0.027,0.005,0.031,0.025,0.016,0.006,-0.001,-0.023,0.031,-0.022,0.026,0.035,-0.024,,300-200
316,-0.024,-0.021,0.003,-0.012,0.015,-0.02,-0.018,0.003,0.023,-0.015,0.014,0.027,0.012,-0.035,0.002,0.021,0.02,-0.038,0.029,0.011,0.023,,400-300
317,-0.021,-0.03,-0.014,0.003,0.005,-0.021,-0.026,-0.013,-0.007,-0.004,-0.007,0.007,0.019,-0.026,-0.005,0.013,0.006,0.003,-0.003,0.006,0.008,,500-400
318,0.009,-0.007,0.001,0.013,0.03,0.025,0.026,0.03,0.041,0.03,0.024,-0.008,0.029,-0.005,0.001,0.004,0.011,-0.011,-0.006,-0.006,0.005,,600-500
319,-0.01,-0.004,0.01,0.017,0.013,0.008,0.019,0.024,0.019,0.022,0.035,0.02,0.003,-0.005,0.011,0.005,-0.005,0.003,0.013,0.011,0.016,,700-600
320,0.008,0.022,0.025,0.036,0.023,0.039,0.048,0.028,0.052,0.048,0.048,0.017,-0.002,0.016,0.009,-0.02,0.024,-0.004,0,0.02,-0.012,,800-700
321,0.02,0.008,0.01,0.005,0.001,0.031,0.026,0.027,0.034,0.017,0.021,-0.01,-0.009,0.03,-0.005,0.001,0.007,-0.017,0.004,-0.007,-0.003,,
322,-0.003,0.003,-0.004,0.009,0.002,0.009,0.023,0.021,0.017,0.025,0.019,-0.001,0.006,0.007,0.014,-0.002,-0.004,0.008,-0.006,-0.003,0.012,,
323,0.004,-0.006,0.006,-0.002,0.01,0.004,0.021,0.017,0.023,0.019,0.029,0.002,0.004,-0.006,0.017,-0.004,0.006,-0.004,0.01,0.012,0.013,,
324,0.011,0.006,0.008,0.014,0.017,0.024,0.026,0.019,0.026,0.025,0.017,-0.003,0.009,0.007,0.002,-0.007,0.007,-0.001,-0.008,-0.002,-0.005,,
325,0.008,0.021,0.007,0.013,0.005,0.014,0.011,0.011,0.031,0.019,0.014,-0.001,-0.002,0.009,-0.003,0,0.02,-0.012,-0.005,0.002,-0.002,,
326,-0.016,0.005,0.001,0.006,0.016,0.017,0.018,0.012,0.022,0.023,0.034,0.017,0.015,0.001,0.001,-0.006,0.01,0.001,0.011,0.023,-0.005,,
327,0.012,0.016,0.005,0.021,0.027,0.029,0.019,0.037,0.027,0.044,0.047,-0.007,0.022,0.002,-0.01,0.018,-0.01,0.017,0.003,0.01,0.008,,
328,-0.006,0.002,-0.002,0.005,0.02,0.014,0.009,0.023,0.032,0.02,0.029,0.004,0.022,-0.006,-0.005,0.014,0.009,-0.012,0.009,0.006,0.009,,
329,0.008,0.011,0.013,0.011,0.012,0.011,0.007,0.023,0.028,0.021,0.01,0.005,-0.001,-0.001,-0.004,0.016,0.005,-0.007,-0.011,-0.014,0.013,,
330,-0.001,0.012,0.009,0.014,0.013,0.021,0.04,0.028,0.036,0.022,0.025,0.01,0.004,0.008,0.019,-0.012,0.008,-0.014,0.003,-0.003,0.007,,
331,0.013,0.007,0.006,0.015,0.026,0.021,0.02,0.028,0.036,0.029,0.03,-0.007,0.02,-0.005,-0.001,0.008,0.008,-0.007,0.001,0.002,0.007,,
332,0.011,0.004,0.009,0.019,0.033,0.024,0.024,0.026,0.026,0.034,0.038,-0.002,0.024,-0.009,0,0.002,0,0.008,0.004,0.012,0.002,,
333,0.012,0.019,0.026,0.026,0.022,0.026,0.03,0.042,0.025,0.033,0.036,0.014,-0.004,0.004,0.004,0.012,-0.017,0.008,0.003,-0.005,0.015,,
334,-0.002,-0.002,0.003,0.004,0.01,0.004,0.017,0.012,0.014,0.021,0.027,0.005,0.007,-0.006,0.013,-0.005,0.002,0.007,0.006,0.014,0.009,,
335,0.011,0.01,0.016,0.011,0.016,0.019,0.029,0.017,0.03,0.045,0.021,0.005,0,0.003,0.01,-0.012,0.013,0.015,-0.024,0.005,-0.002,,
336,-0.008,0.003,0.002,0.006,0.007,0.007,0.024,0.018,0.011,0.021,0.029,0.01,0.005,0,0.017,-0.006,-0.007,0.01,0.008,0.011,0.011,,
337,0.002,0.002,-0.004,0.025,0.017,0.016,0.031,0.026,0.024,0.035,0.032,-0.006,0.021,-0.001,0.015,-0.005,-0.002,0.011,-0.003,0.006,0.01,,
338,0,0.011,0.013,0.012,0.015,0.021,0.029,0.016,0.03,0.025,0.026,0.013,0.002,0.006,0.008,-0.013,0.014,-0.005,0.001,0.01,-0.004,,
339,0.01,0.017,0.013,0.017,0.025,0.032,0.027,0.034,0.039,0.045,0.034,0.003,0.012,0.007,-0.005,0.007,0.005,0.006,-0.011,0,0.002,,
340,-0.005,-0.004,-0.002,0.004,0.022,0.019,0.018,0.027,0.02,0.017,0.022,0.003,0.024,-0.003,-0.001,0.009,-0.007,-0.003,0.005,-0.005,0.008,,
341,-0.01,0.002,0.003,0.009,0.016,0.017,0.021,0.029,0.028,0.031,0.029,0.013,0.013,0.001,0.004,0.008,-0.001,0.003,-0.002,0,0.012,,
342,-0.003,0.001,0.007,-0.006,0.007,0.011,0.015,0.016,0.024,0.027,0.025,0.01,0,0.004,0.004,0.001,0.008,0.003,-0.002,0.009,0.005,,
343,-0.003,0.007,0.001,0.005,0.015,0.017,0.017,0.014,0.016,0.022,0.031,0.004,0.014,0.002,0,-0.003,0.002,0.006,0.009,0.017,-0.003,,
344,0.005,0.003,0.013,0.011,0.005,0.007,0.022,0.019,0.028,0.023,0.031,0.008,-0.008,0.002,0.015,-0.003,0.009,-0.005,0.008,0.012,0.012,,
345,-0.001,-0.001,0,0.007,0.005,0.014,0.023,0.016,0.031,0.032,0.025,0.001,0.005,0.009,0.009,-0.007,0.015,0.001,-0.007,0.01,0.002,,
346,0,0.005,0.003,0.022,0.012,0.018,0.026,0.028,0.032,0.038,0.026,0.003,0.009,0.006,0.008,0.002,0.004,0.006,-0.012,-0.002,0.01,,
347,-0.001,0.002,0.008,0.014,0.017,0.024,0.022,0.028,0.026,0.028,0.026,0.009,0.009,0.007,-0.002,0.006,-0.002,0.002,-0.002,-0.002,0.004,,
348,-0.003,-0.001,0.005,0.008,0.013,0.013,0.019,0.022,0.022,0.026,0.022,0.008,0.008,0,0.006,0.003,0,0.004,-0.004,0,0.009,,
349,0.003,0.015,0.023,0.026,0.024,0.024,0.034,0.042,0.036,0.039,0.039,0.02,0.001,0,0.01,0.008,-0.006,0.003,0,-0.003,0.018,,
350,-0.002,0.01,0.005,0.013,0.027,0.022,0.022,0.031,0.025,0.031,0.03,0.007,0.022,-0.005,0,0.009,-0.006,0.006,-0.001,-0.001,0.009,,
351,-0.003,0.003,0.007,0.008,0.02,0.018,0.022,0.031,0.028,0.024,0.03,0.01,0.013,-0.002,0.004,0.009,-0.003,-0.004,0.006,0,0.012,,
352,-0.001,0.001,0.011,0.009,0.019,0.014,0.021,0.028,0.027,0.03,0.026,0.012,0.008,-0.005,0.007,0.007,-0.001,0.003,-0.004,-0.003,0.014,,
353,0.002,0.006,0.013,0.013,0.029,0.032,0.032,0.031,0.036,0.034,0.033,0.011,0.016,0.003,0,-0.001,0.005,-0.002,-0.001,0.003,-0.001,,
354,0.006,0.004,0.011,0.011,0.018,0.015,0.023,0.027,0.033,0.035,0.038,0.005,0.007,-0.003,0.008,0.004,0.006,0.002,0.003,0.011,0.012,,
355,0.015,0.01,0.015,0.02,0.034,0.028,0.031,0.03,0.034,0.04,0.036,0,0.019,-0.006,0.003,-0.001,0.004,0.006,-0.004,0.006,0.003,,
356,0.01,0.01,0.011,0.021,0.028,0.031,0.034,0.028,0.039,0.04,0.038,0.001,0.017,0.003,0.003,-0.006,0.011,0.001,-0.002,0.01,-0.003,,
357,0,0.005,0.008,0.015,0.02,0.027,0.029,0.033,0.036,0.024,0.034,0.008,0.012,0.007,0.002,0.004,0.003,-0.012,0.01,0.001,0.006,,
358,0.005,0.005,0.006,0.015,0.011,0.024,0.018,0.028,0.02,0.026,0.036,0.001,0.005,0.013,-0.006,0.01,-0.008,0.006,0.01,0.008,0.004,,
359,0.009,0.009,0.007,0.006,0.018,0.018,0.03,0.028,0.033,0.032,0.035,-0.002,0.011,0,0.012,-0.002,0.005,-0.001,0.003,0.007,0.009,,
360,0.004,0.003,0.016,0.014,0.012,0.015,0.027,0.034,0.04,0.032,0.031,0.012,-0.004,0.003,0.012,0.007,0.006,-0.008,-0.001,-0.003,0.019,,
361,-0.006,0.004,0.005,0.018,0.015,0.019,0.021,0.022,0.033,0.034,0.035,0.011,0.01,0.004,0.002,0.001,0.011,0.001,0.001,0.013,0.003,,
362,0.002,0.002,0.009,0.011,0.019,0.024,0.029,0.027,0.037,0.038,0.028,0.007,0.01,0.005,0.005,-0.002,0.01,0.001,-0.01,0.001,0.003,,
363,-0.002,0.007,0.007,0.016,0.019,0.027,0.025,0.039,0.033,0.037,0.032,0.009,0.012,0.008,-0.002,0.014,-0.006,0.004,-0.005,-0.007,0.012,,
364,-0.009,0.003,0.004,0.003,0.007,0.02,0.026,0.026,0.02,0.029,0.028,0.013,0.003,0.013,0.006,0,-0.006,0.009,-0.001,0.002,0.005,,
365,0.001,0,0.005,0.013,0.02,0.03,0.033,0.035,0.03,0.036,0.041,0.004,0.015,0.01,0.003,0.002,-0.005,0.006,0.005,0.007,0.004,,
366,0.004,0.005,0.007,0.016,0.028,0.026,0.031,0.029,0.036,0.04,0.034,0.003,0.021,-0.002,0.005,-0.002,0.007,0.004,-0.006,0.005,0.002,,
367,-0.006,0.005,0.011,0.009,0.017,0.019,0.029,0.03,0.039,0.039,0.035,0.017,0.006,0.002,0.01,0.001,0.009,0,-0.004,0.005,0.01,,
368,0,0.012,0.011,0.014,0.015,0.025,0.028,0.032,0.033,0.035,0.036,0.011,0.004,0.01,0.003,0.004,0.001,0.002,0.001,0.004,0.007,,
369,0,0.001,0.008,0.013,0.014,0.022,0.03,0.034,0.037,0.03,0.032,0.008,0.006,0.008,0.008,0.004,0.003,-0.007,0.002,-0.002,0.012,,
370,0.01,0.006,0.006,0.011,0.025,0.017,0.026,0.031,0.036,0.038,0.034,-0.004,0.019,-0.008,0.009,0.005,0.005,0.002,-0.004,0.003,0.014,,
371,0.006,0.018,0.018,0.014,0.027,0.022,0.033,0.036,0.048,0.041,0.046,0.012,0.009,-0.005,0.011,0.003,0.012,-0.007,0.005,0.01,0.015,,
372,-0.005,0.004,0.009,0.009,0.012,0.015,0.03,0.03,0.03,0.032,0.035,0.014,0.003,0.003,0.015,0,0,0.002,0.003,0.006,0.015,,
373,-0.003,0.004,0.01,0.006,0.023,0.019,0.029,0.026,0.028,0.034,0.03,0.013,0.013,-0.004,0.01,-0.003,0.002,0.006,-0.004,0.004,0.007,,
374,-0.002,0.006,0.012,0.014,0.022,0.018,0.029,0.029,0.032,0.034,0.035,0.014,0.01,-0.004,0.011,0,0.003,0.002,0.001,0.005,0.012,,
375,-0.005,-0.001,0.003,0.011,0.014,0.019,0.023,0.028,0.029,0.038,0.029,0.008,0.011,0.005,0.004,0.005,0.001,0.009,-0.009,0.001,0.009,,
376,0.002,0.009,0.013,0.018,0.024,0.03,0.035,0.032,0.039,0.037,0.045,0.011,0.011,0.006,0.005,-0.003,0.007,-0.002,0.008,0.013,0.002,,
377,-0.001,0.008,0.01,0.017,0.022,0.028,0.031,0.032,0.034,0.041,0.038,0.011,0.012,0.006,0.003,0.001,0.002,0.007,-0.003,0.007,0.003,,
378,-0.005,0.004,0.001,0.011,0.016,0.02,0.032,0.033,0.036,0.034,0.036,0.006,0.015,0.004,0.012,0.001,0.003,-0.002,0.002,0.003,0.013,,
379,-0.001,0.009,0.006,0.014,0.025,0.028,0.033,0.036,0.042,0.035,0.039,0.007,0.019,0.003,0.005,0.003,0.006,-0.007,0.004,0.002,0.008,,
380,-0.004,0,0.001,0.015,0.02,0.025,0.021,0.033,0.034,0.036,0.035,0.005,0.019,0.005,-0.004,0.012,0.001,0.002,-0.001,0.002,0.009,,
381,-0.001,0.002,0.014,0.017,0.023,0.026,0.028,0.034,0.031,0.039,0.04,0.015,0.009,0.003,0.002,0.006,-0.003,0.008,0.001,0.006,0.007,,
382,-0.002,0.005,0.006,0.013,0.022,0.03,0.026,0.032,0.033,0.037,0.041,0.008,0.016,0.008,-0.004,0.006,0.001,0.004,0.004,0.009,0.002,,
383,0,0.007,0.011,0.015,0.023,0.033,0.033,0.039,0.039,0.036,0.043,0.011,0.012,0.01,0,0.006,0,-0.003,0.007,0.004,0.006,,
384,0,0.008,0.008,0.017,0.024,0.023,0.026,0.039,0.036,0.043,0.04,0.008,0.016,-0.001,0.003,0.013,-0.003,0.007,-0.003,0.001,0.016,,
385,-0.004,0.005,0.009,0.013,0.016,0.026,0.029,0.036,0.031,0.037,0.041,0.013,0.007,0.01,0.003,0.007,-0.005,0.006,0.004,0.005,0.009,,
386,0.004,0.009,0.013,0.018,0.021,0.032,0.036,0.043,0.04,0.044,0.042,0.009,0.008,0.011,0.004,0.007,-0.003,0.004,-0.002,-0.002,0.012,,
387,0.003,0.01,0.011,0.015,0.024,0.03,0.032,0.041,0.04,0.047,0.046,0.008,0.013,0.006,0.002,0.009,-0.001,0.007,-0.001,0.005,0.011,,
388,-0.005,0.005,0.005,0.017,0.019,0.023,0.026,0.032,0.034,0.036,0.042,0.01,0.014,0.004,0.003,0.006,0.002,0.002,0.006,0.01,0.009,,
389,0.003,0.008,0.01,0.018,0.027,0.029,0.033,0.035,0.033,0.043,0.046,0.007,0.017,0.002,0.004,0.002,-0.002,0.01,0.003,0.011,0.006,,
390,0.002,0.009,0.01,0.017,0.023,0.029,0.03,0.033,0.042,0.044,0.043,0.008,0.013,0.006,0.001,0.003,0.009,0.002,-0.001,0.01,0.005,,
391,-0.004,0.004,0.004,0.013,0.017,0.02,0.031,0.032,0.033,0.037,0.04,0.008,0.013,0.003,0.011,0.001,0.001,0.004,0.003,0.008,0.012,,
392,-0.001,0.008,0.009,0.015,0.026,0.031,0.027,0.038,0.039,0.043,0.047,0.01,0.017,0.005,-0.004,0.011,0.001,0.004,0.004,0.009,0.008,,
393,0.001,0.005,0.014,0.012,0.022,0.028,0.032,0.036,0.04,0.04,0.046,0.013,0.008,0.006,0.004,0.004,0.004,0,0.006,0.01,0.008,,
394,0,0.004,0.01,0.013,0.026,0.026,0.035,0.04,0.038,0.044,0.045,0.01,0.016,0,0.009,0.005,-0.002,0.006,0.001,0.005,0.014,,
395,0.005,0.008,0.012,0.019,0.029,0.031,0.04,0.039,0.043,0.044,0.039,0.007,0.017,0.002,0.009,-0.001,0.004,0.001,-0.005,0,0.007,,
396,0.002,0.01,0.012,0.011,0.023,0.03,0.033,0.037,0.038,0.044,0.044,0.01,0.011,0.007,0.003,0.004,0.001,0.006,0,0.008,0.006,,
397,0,0.007,0.013,0.02,0.026,0.029,0.036,0.042,0.039,0.045,0.045,0.013,0.013,0.003,0.007,0.006,-0.003,0.006,0,0.002,0.013,,
398,-0.002,0.004,0.011,0.016,0.024,0.026,0.033,0.039,0.042,0.039,0.043,0.013,0.013,0.002,0.007,0.006,0.003,-0.003,0.004,0.004,0.013,,
399,0.004,0.006,0.009,0.017,0.03,0.033,0.037,0.039,0.04,0.046,0.049,0.005,0.021,0.003,0.004,0.002,0.001,0.006,0.003,0.01,0.005,,
400,0.001,0.004,0.012,0.015,0.023,0.027,0.036,0.038,0.041,0.042,0.038,0.011,0.011,0.004,0.009,0.002,0.003,0.001,-0.004,0,0.011,,
401,0.006,0.01,0.008,0.017,0.023,0.033,0.036,0.043,0.037,0.045,0.047,0.002,0.015,0.01,0.003,0.007,-0.006,0.008,0.002,0.005,0.01,,
402,0,0.004,0.003,0.014,0.022,0.029,0.033,0.037,0.037,0.043,0.041,0.003,0.019,0.007,0.004,0.004,0,0.006,-0.002,0.004,0.009,,
403,0.001,0.003,0.008,0.013,0.02,0.028,0.032,0.037,0.038,0.041,0.045,0.007,0.012,0.008,0.004,0.005,0.001,0.003,0.004,0.007,0.01,,
404,0.004,0.01,0.008,0.017,0.026,0.031,0.033,0.038,0.045,0.04,0.04,0.004,0.018,0.005,0.002,0.005,0.007,-0.005,0,0.002,0.007,,
405,0,0.005,0.009,0.015,0.025,0.029,0.035,0.035,0.042,0.044,0.046,0.009,0.016,0.004,0.006,0,0.007,0.002,0.002,0.011,0.006,,
406,-0.005,0.006,0.006,0.009,0.023,0.027,0.029,0.036,0.037,0.039,0.041,0.011,0.017,0.004,0.002,0.007,0.001,0.002,0.002,0.005,0.008,,
407,0,0.007,0.009,0.017,0.027,0.03,0.034,0.037,0.044,0.046,0.048,0.009,0.018,0.003,0.004,0.003,0.007,0.002,0.002,0.011,0.007,,
408,0.005,0.006,0.011,0.016,0.029,0.032,0.038,0.037,0.043,0.043,0.046,0.006,0.018,0.003,0.006,-0.001,0.006,0,0.003,0.009,0.004,,
409,0.004,0.002,0.007,0.014,0.024,0.028,0.036,0.04,0.038,0.043,0.048,0.003,0.017,0.004,0.008,0.004,-0.002,0.005,0.005,0.008,0.012,,
410,0.001,0.007,0.006,0.013,0.021,0.028,0.034,0.041,0.042,0.04,0.047,0.005,0.015,0.007,0.006,0.007,0.001,-0.002,0.007,0.005,0.013,,
411,-0.003,0.001,0.008,0.017,0.026,0.031,0.037,0.038,0.04,0.044,0.047,0.011,0.018,0.005,0.006,0.001,0.002,0.004,0.003,0.009,0.007,,
412,0.005,0.007,0.009,0.019,0.024,0.034,0.035,0.042,0.04,0.048,0.048,0.004,0.015,0.01,0.001,0.007,-0.002,0.008,0,0.006,0.008,,
413,0.004,0.008,0.015,0.019,0.029,0.033,0.037,0.04,0.044,0.049,0.053,0.011,0.014,0.004,0.004,0.003,0.004,0.005,0.004,0.013,0.006,,
414,-0.002,0.005,0.012,0.017,0.024,0.03,0.035,0.038,0.041,0.044,0.047,0.014,0.012,0.006,0.005,0.003,0.003,0.003,0.003,0.01,0.008,,
415,0.005,0.008,0.011,0.018,0.03,0.033,0.038,0.042,0.048,0.049,0.052,0.006,0.019,0.003,0.005,0.004,0.006,0.001,0.003,0.01,0.009,,
416,0.002,0.007,0.019,0.018,0.028,0.033,0.042,0.044,0.044,0.05,0.049,0.017,0.009,0.005,0.009,0.002,0,0.006,-0.001,0.005,0.011,,
417,-0.006,0.002,0.003,0.012,0.023,0.03,0.033,0.037,0.04,0.042,0.047,0.009,0.02,0.007,0.003,0.004,0.003,0.002,0.005,0.01,0.007,,
418,0,0.002,0.006,0.018,0.023,0.029,0.034,0.038,0.041,0.044,0.049,0.006,0.017,0.006,0.005,0.004,0.003,0.003,0.005,0.012,0.009,,
419,0.001,0.009,0.011,0.019,0.026,0.03,0.038,0.039,0.041,0.049,0.048,0.01,0.015,0.004,0.008,0.001,0.002,0.008,-0.001,0.01,0.008,,
420,0.003,0.011,0.012,0.015,0.028,0.036,0.039,0.043,0.046,0.05,0.05,0.009,0.016,0.008,0.003,0.004,0.003,0.004,0,0.007,0.007,,
421,0.001,0.008,0.012,0.018,0.029,0.033,0.036,0.042,0.045,0.05,0.051,0.011,0.017,0.004,0.003,0.006,0.003,0.005,0.001,0.009,0.008,,
422,-0.001,0.004,0.01,0.017,0.027,0.03,0.037,0.041,0.046,0.048,0.054,0.011,0.017,0.003,0.007,0.004,0.005,0.002,0.006,0.013,0.01,,
423,0.003,0.01,0.009,0.019,0.027,0.034,0.036,0.044,0.048,0.051,0.055,0.006,0.018,0.007,0.002,0.008,0.004,0.003,0.004,0.011,0.01,,
424,0.005,0.012,0.016,0.024,0.033,0.041,0.043,0.049,0.049,0.054,0.053,0.011,0.017,0.008,0.002,0.006,0,0.005,-0.001,0.004,0.008,,
425,-0.003,0.007,0.01,0.014,0.026,0.03,0.038,0.045,0.046,0.046,0.05,0.013,0.016,0.004,0.008,0.007,0.001,0,0.004,0.004,0.015,,
426,0,0.006,0.01,0.017,0.025,0.033,0.034,0.043,0.049,0.051,0.053,0.01,0.015,0.008,0.001,0.009,0.006,0.002,0.002,0.01,0.01,,
427,0,0.008,0.012,0.019,0.027,0.034,0.04,0.044,0.048,0.052,0.054,0.012,0.015,0.007,0.006,0.004,0.004,0.004,0.002,0.01,0.01,,
428,-0.003,0.003,0.009,0.014,0.029,0.032,0.04,0.04,0.044,0.046,0.051,0.012,0.02,0.003,0.008,0,0.004,0.002,0.005,0.011,0.008,,
429,0.001,0.005,0.011,0.019,0.03,0.036,0.042,0.045,0.047,0.055,0.053,0.01,0.019,0.006,0.006,0.003,0.002,0.008,-0.002,0.008,0.009,,
430,0,0.006,0.011,0.017,0.031,0.038,0.039,0.048,0.046,0.052,0.053,0.011,0.02,0.007,0.001,0.009,-0.002,0.006,0.001,0.004,0.011,,
431,-0.001,0.007,0.01,0.017,0.03,0.034,0.041,0.045,0.046,0.05,0.053,0.011,0.02,0.004,0.007,0.004,0.001,0.004,0.003,0.009,0.011,,
432,0,0.009,0.009,0.017,0.03,0.035,0.041,0.044,0.048,0.055,0.057,0.009,0.021,0.005,0.006,0.003,0.004,0.007,0.002,0.013,0.009,,
433,0.002,0.005,0.008,0.014,0.027,0.036,0.039,0.045,0.048,0.052,0.055,0.006,0.019,0.009,0.003,0.006,0.003,0.004,0.003,0.01,0.009,,
434,-0.001,0.007,0.01,0.018,0.029,0.036,0.04,0.046,0.049,0.052,0.056,0.011,0.019,0.007,0.004,0.006,0.003,0.003,0.004,0.01,0.01,,
435,-0.001,0.005,0.007,0.018,0.026,0.034,0.045,0.045,0.047,0.05,0.052,0.008,0.019,0.008,0.011,0,0.002,0.003,0.002,0.007,0.012,,
436,0.003,0.009,0.017,0.017,0.03,0.037,0.044,0.048,0.051,0.056,0.058,0.014,0.013,0.007,0.007,0.004,0.003,0.005,0.002,0.01,0.011,,
437,0.001,0.008,0.013,0.016,0.029,0.034,0.044,0.047,0.047,0.054,0.056,0.012,0.016,0.005,0.01,0.003,0,0.007,0.002,0.009,0.013,,
438,-0.003,0.006,0.008,0.015,0.026,0.036,0.044,0.045,0.047,0.051,0.056,0.011,0.018,0.01,0.008,0.001,0.002,0.004,0.005,0.01,0.009,,
439,-0.001,0.006,0.016,0.016,0.027,0.035,0.041,0.047,0.051,0.054,0.059,0.017,0.011,0.008,0.006,0.006,0.004,0.003,0.005,0.012,0.012,,
440,-0.002,0.008,0.011,0.018,0.029,0.039,0.045,0.047,0.051,0.054,0.056,0.013,0.018,0.01,0.006,0.002,0.004,0.003,0.002,0.009,0.008,,
441,-0.001,0.008,0.013,0.019,0.031,0.04,0.043,0.048,0.052,0.057,0.061,0.014,0.018,0.009,0.003,0.005,0.004,0.005,0.004,0.014,0.008,,
442,-0.001,0.007,0.01,0.019,0.029,0.036,0.042,0.049,0.052,0.058,0.057,0.011,0.019,0.007,0.006,0.007,0.003,0.006,-0.001,0.008,0.013,,
443,-0.002,0.009,0.012,0.016,0.03,0.038,0.046,0.044,0.052,0.055,0.058,0.014,0.018,0.008,0.008,-0.002,0.008,0.003,0.003,0.014,0.006,,
444,0.001,0.005,0.014,0.019,0.032,0.039,0.048,0.048,0.053,0.059,0.059,0.013,0.018,0.007,0.009,0,0.005,0.006,0,0.011,0.009,,
445,0.003,0.007,0.012,0.018,0.028,0.041,0.044,0.05,0.055,0.055,0.061,0.009,0.016,0.013,0.003,0.006,0.005,0,0.006,0.01,0.009,,
446,0.003,0.007,0.011,0.019,0.032,0.039,0.046,0.052,0.054,0.06,0.061,0.008,0.021,0.007,0.007,0.006,0.002,0.006,0.001,0.009,0.013,,
447,0.001,0.008,0.013,0.018,0.03,0.04,0.047,0.048,0.052,0.056,0.061,0.012,0.017,0.01,0.007,0.001,0.004,0.004,0.005,0.013,0.008,,
448,0.001,0.006,0.012,0.019,0.029,0.038,0.044,0.05,0.055,0.057,0.059,0.011,0.017,0.009,0.006,0.006,0.005,0.002,0.002,0.009,0.012,,
449,0,0.01,0.014,0.019,0.029,0.04,0.046,0.05,0.053,0.06,0.06,0.014,0.015,0.011,0.006,0.004,0.003,0.007,0,0.011,0.01,,
450,0.001,0.009,0.013,0.02,0.031,0.041,0.045,0.051,0.054,0.059,0.064,0.012,0.018,0.01,0.004,0.006,0.003,0.005,0.005,0.014,0.01,,
451,-0.002,0.008,0.015,0.019,0.034,0.038,0.045,0.051,0.055,0.063,0.063,0.017,0.019,0.004,0.007,0.006,0.004,0.008,0,0.012,0.013,,
452,0,0.009,0.012,0.021,0.031,0.039,0.048,0.05,0.055,0.061,0.066,0.012,0.019,0.008,0.009,0.002,0.005,0.006,0.005,0.016,0.011,,
453,0.003,0.007,0.013,0.021,0.032,0.041,0.049,0.053,0.057,0.06,0.065,0.01,0.019,0.009,0.008,0.004,0.004,0.003,0.005,0.012,0.012,,
454,0.002,0.005,0.008,0.016,0.029,0.039,0.045,0.051,0.055,0.06,0.061,0.006,0.021,0.01,0.006,0.006,0.004,0.005,0.001,0.011,0.011,,
455,0.003,0.011,0.016,0.021,0.033,0.042,0.046,0.053,0.059,0.061,0.067,0.013,0.017,0.009,0.004,0.007,0.006,0.002,0.006,0.014,0.011,,
456,0,0.004,0.012,0.016,0.03,0.04,0.049,0.052,0.055,0.06,0.065,0.012,0.018,0.01,0.009,0.003,0.003,0.005,0.005,0.012,0.013,,
457,0,0.005,0.011,0.017,0.03,0.037,0.042,0.051,0.056,0.06,0.065,0.011,0.019,0.007,0.005,0.009,0.005,0.004,0.005,0.013,0.015,,
458,-0.002,0.007,0.011,0.017,0.03,0.042,0.045,0.052,0.056,0.058,0.066,0.013,0.019,0.012,0.003,0.007,0.004,0.002,0.008,0.015,0.01,,
459,0,0.012,0.015,0.022,0.033,0.044,0.048,0.053,0.058,0.064,0.068,0.015,0.018,0.011,0.004,0.005,0.005,0.006,0.004,0.016,0.009,,
460,-0.002,0.006,0.013,0.016,0.032,0.041,0.046,0.053,0.059,0.061,0.065,0.015,0.019,0.009,0.005,0.007,0.006,0.002,0.004,0.011,0.012,,
461,0.002,0.005,0.011,0.017,0.031,0.039,0.044,0.051,0.055,0.063,0.062,0.009,0.02,0.008,0.005,0.007,0.004,0.008,-0.001,0.011,0.012,,
462,0.001,0.006,0.012,0.018,0.032,0.042,0.049,0.052,0.058,0.065,0.066,0.011,0.02,0.01,0.007,0.003,0.006,0.007,0.001,0.014,0.01,,
463,-0.002,0.008,0.012,0.017,0.032,0.042,0.047,0.053,0.059,0.062,0.064,0.014,0.02,0.01,0.005,0.006,0.006,0.003,0.002,0.011,0.011,,
464,0.003,0.008,0.013,0.019,0.035,0.042,0.051,0.055,0.06,0.065,0.069,0.01,0.022,0.007,0.009,0.004,0.005,0.005,0.004,0.014,0.014,,
465,0,0.007,0.012,0.021,0.033,0.042,0.048,0.056,0.058,0.064,0.065,0.012,0.021,0.009,0.006,0.008,0.002,0.006,0.001,0.009,0.014,,
466,0,0.006,0.012,0.018,0.033,0.04,0.048,0.055,0.058,0.065,0.068,0.012,0.021,0.007,0.008,0.007,0.003,0.007,0.003,0.013,0.015,,
467,-0.001,0.005,0.01,0.02,0.032,0.041,0.048,0.053,0.057,0.061,0.066,0.011,0.022,0.009,0.007,0.005,0.004,0.004,0.005,0.013,0.012,,
468,0,0.008,0.013,0.022,0.033,0.045,0.049,0.056,0.061,0.066,0.068,0.013,0.02,0.012,0.004,0.007,0.005,0.005,0.002,0.012,0.011,,
469,0.001,0.007,0.014,0.02,0.034,0.044,0.048,0.057,0.061,0.065,0.068,0.013,0.02,0.01,0.004,0.009,0.004,0.004,0.003,0.011,0.013,,
470,0.002,0.008,0.012,0.022,0.034,0.042,0.05,0.055,0.06,0.065,0.067,0.01,0.022,0.008,0.008,0.005,0.005,0.005,0.002,0.012,0.013,,
471,-0.003,0.007,0.012,0.02,0.032,0.042,0.047,0.054,0.061,0.065,0.07,0.015,0.02,0.01,0.005,0.007,0.007,0.004,0.005,0.016,0.013,,
472,0,0.007,0.012,0.019,0.032,0.044,0.048,0.054,0.06,0.064,0.069,0.012,0.02,0.012,0.004,0.006,0.006,0.004,0.005,0.015,0.01,,
473,0.002,0.008,0.014,0.022,0.036,0.046,0.052,0.058,0.062,0.068,0.072,0.012,0.022,0.01,0.006,0.006,0.004,0.006,0.004,0.014,0.012,,
474,0.004,0.011,0.016,0.024,0.038,0.045,0.054,0.061,0.064,0.069,0.073,0.012,0.022,0.007,0.009,0.007,0.003,0.005,0.004,0.012,0.016,,
475,-0.001,0.007,0.012,0.022,0.033,0.044,0.05,0.056,0.06,0.068,0.071,0.013,0.021,0.011,0.006,0.006,0.004,0.008,0.003,0.015,0.012,,
476,0.001,0.008,0.013,0.019,0.035,0.044,0.05,0.057,0.06,0.066,0.072,0.012,0.022,0.009,0.006,0.007,0.003,0.006,0.006,0.015,0.013,,
477,0.001,0.009,0.014,0.021,0.033,0.046,0.051,0.057,0.064,0.068,0.072,0.013,0.019,0.013,0.005,0.006,0.007,0.004,0.004,0.015,0.012,,
478,-0.001,0.008,0.011,0.021,0.035,0.043,0.049,0.056,0.06,0.066,0.071,0.012,0.024,0.008,0.006,0.007,0.004,0.006,0.005,0.015,0.013,,
479,0.002,0.007,0.013,0.02,0.033,0.045,0.05,0.056,0.062,0.068,0.072,0.011,0.02,0.012,0.005,0.006,0.006,0.006,0.004,0.016,0.011,,
480,0,0.007,0.011,0.02,0.035,0.044,0.051,0.058,0.061,0.067,0.073,0.011,0.024,0.009,0.007,0.007,0.003,0.006,0.006,0.015,0.014,,
481,-0.001,0.009,0.013,0.022,0.036,0.046,0.052,0.058,0.066,0.072,0.074,0.014,0.023,0.01,0.006,0.006,0.008,0.006,0.002,0.016,0.013,,
482,0.002,0.009,0.013,0.022,0.039,0.046,0.053,0.06,0.064,0.071,0.074,0.011,0.026,0.007,0.007,0.007,0.004,0.007,0.003,0.013,0.015,,
483,-0.002,0.004,0.012,0.019,0.032,0.043,0.051,0.055,0.061,0.067,0.07,0.014,0.02,0.011,0.008,0.004,0.006,0.006,0.003,0.015,0.013,,
484,0.001,0.006,0.012,0.022,0.037,0.047,0.05,0.057,0.064,0.069,0.074,0.011,0.025,0.01,0.003,0.007,0.007,0.005,0.005,0.018,0.01,,
485,-0.001,0.007,0.013,0.02,0.034,0.044,0.052,0.056,0.064,0.07,0.074,0.014,0.021,0.01,0.008,0.004,0.008,0.006,0.004,0.018,0.012,,
486,0.001,0.008,0.014,0.023,0.035,0.046,0.054,0.061,0.064,0.071,0.075,0.013,0.021,0.011,0.008,0.007,0.003,0.007,0.004,0.014,0.015,,
487,-0.001,0.008,0.012,0.02,0.034,0.045,0.05,0.058,0.065,0.072,0.073,0.013,0.022,0.011,0.005,0.008,0.007,0.007,0.001,0.015,0.014,,
488,0.002,0.007,0.015,0.022,0.038,0.046,0.053,0.061,0.065,0.07,0.076,0.013,0.023,0.008,0.007,0.008,0.004,0.005,0.006,0.015,0.015,,
489,-0.001,0.009,0.014,0.022,0.038,0.047,0.054,0.061,0.066,0.072,0.076,0.015,0.024,0.009,0.007,0.007,0.005,0.006,0.004,0.015,0.014,,
490,0.001,0.009,0.014,0.022,0.037,0.048,0.054,0.063,0.066,0.075,0.075,0.013,0.023,0.011,0.006,0.009,0.003,0.009,0,0.013,0.014,,
491,-0.001,0.007,0.012,0.02,0.035,0.047,0.053,0.059,0.064,0.07,0.075,0.013,0.023,0.012,0.006,0.006,0.005,0.006,0.005,0.016,0.012,,
492,-0.002,0.006,0.013,0.018,0.035,0.044,0.052,0.057,0.063,0.072,0.074,0.015,0.022,0.009,0.008,0.005,0.006,0.009,0.002,0.017,0.013,,
493,0,0.008,0.014,0.02,0.036,0.045,0.053,0.06,0.065,0.069,0.076,0.014,0.022,0.009,0.008,0.007,0.005,0.004,0.007,0.016,0.015,,
494,-0.003,0.006,0.011,0.018,0.032,0.044,0.05,0.057,0.063,0.07,0.074,0.014,0.021,0.012,0.006,0.007,0.006,0.007,0.004,0.017,0.013,,
495,-0.003,0.005,0.011,0.02,0.033,0.045,0.051,0.057,0.065,0.07,0.075,0.014,0.022,0.012,0.006,0.006,0.008,0.005,0.005,0.018,0.012,,
496,0.003,0.008,0.014,0.024,0.036,0.047,0.056,0.06,0.068,0.073,0.076,0.011,0.022,0.011,0.009,0.004,0.008,0.005,0.003,0.016,0.013,,
497,0,0.007,0.012,0.022,0.033,0.048,0.054,0.061,0.064,0.073,0.076,0.012,0.021,0.015,0.006,0.007,0.003,0.009,0.003,0.015,0.013,,
498,-0.001,0.006,0.013,0.019,0.035,0.046,0.052,0.06,0.065,0.072,0.075,0.014,0.022,0.011,0.006,0.008,0.005,0.007,0.003,0.016,0.014,,
499,0,0.007,0.014,0.02,0.036,0.048,0.053,0.057,0.066,0.073,0.075,0.014,0.022,0.012,0.005,0.004,0.009,0.007,0.002,0.018,0.01,,
500,0,0.008,0.016,0.022,0.036,0.047,0.054,0.061,0.068,0.072,0.078,0.016,0.02,0.011,0.007,0.007,0.007,0.004,0.006,0.017,0.013,,
501,0.001,0.009,0.013,0.02,0.036,0.046,0.052,0.059,0.066,0.072,0.077,0.012,0.023,0.01,0.006,0.007,0.007,0.006,0.005,0.018,0.012,,
502,0,0.007,0.012,0.02,0.034,0.044,0.051,0.057,0.065,0.07,0.075,0.012,0.022,0.01,0.007,0.006,0.008,0.005,0.005,0.018,0.013,,
503,0.001,0.008,0.015,0.022,0.038,0.046,0.055,0.06,0.067,0.072,0.077,0.014,0.023,0.008,0.009,0.005,0.007,0.005,0.005,0.016,0.014,,
504,-0.002,0.009,0.013,0.019,0.035,0.045,0.053,0.058,0.064,0.07,0.076,0.015,0.022,0.01,0.008,0.005,0.006,0.006,0.006,0.018,0.012,,
505,0,0.008,0.014,0.022,0.036,0.047,0.053,0.059,0.067,0.072,0.076,0.014,0.022,0.011,0.006,0.006,0.008,0.005,0.004,0.017,0.011,,
506,0.002,0.009,0.014,0.023,0.036,0.048,0.052,0.06,0.067,0.074,0.077,0.012,0.022,0.012,0.004,0.008,0.007,0.007,0.003,0.017,0.012,,
507,0.002,0.009,0.014,0.022,0.038,0.046,0.054,0.061,0.068,0.073,0.077,0.012,0.024,0.008,0.008,0.007,0.007,0.005,0.004,0.016,0.015,,
508,0,0.007,0.012,0.02,0.033,0.044,0.052,0.059,0.065,0.071,0.077,0.012,0.021,0.011,0.008,0.007,0.006,0.006,0.006,0.017,0.015,,
509,-0.001,0.004,0.012,0.02,0.033,0.044,0.052,0.057,0.063,0.072,0.075,0.013,0.021,0.011,0.008,0.005,0.006,0.009,0.003,0.019,0.012,,
510,0.002,0.008,0.015,0.02,0.035,0.046,0.053,0.059,0.067,0.071,0.075,0.013,0.02,0.011,0.007,0.006,0.008,0.004,0.004,0.016,0.013,,
511,-0.001,0.008,0.013,0.019,0.035,0.045,0.053,0.059,0.067,0.072,0.074,0.014,0.022,0.01,0.008,0.006,0.008,0.005,0.002,0.016,0.014,,
512,0.001,0.006,0.011,0.018,0.032,0.045,0.05,0.057,0.061,0.07,0.072,0.01,0.021,0.013,0.005,0.007,0.004,0.009,0.002,0.016,0.011,,
513,-0.003,0.004,0.012,0.019,0.032,0.043,0.052,0.055,0.063,0.069,0.074,0.015,0.02,0.011,0.009,0.003,0.008,0.006,0.005,0.019,0.012,,
514,-0.001,0.004,0.009,0.019,0.03,0.041,0.047,0.056,0.062,0.068,0.071,0.01,0.021,0.011,0.006,0.009,0.006,0.006,0.003,0.016,0.014,,
515,0,0.006,0.012,0.02,0.034,0.044,0.049,0.057,0.063,0.07,0.076,0.012,0.022,0.01,0.005,0.008,0.006,0.007,0.006,0.018,0.013,,
516,0,0.008,0.012,0.02,0.034,0.046,0.05,0.057,0.062,0.07,0.075,0.012,0.022,0.012,0.004,0.007,0.005,0.008,0.005,0.019,0.011,,
517,-0.003,0.005,0.009,0.019,0.03,0.04,0.049,0.054,0.06,0.066,0.073,0.012,0.021,0.01,0.009,0.005,0.006,0.006,0.007,0.019,0.014,,
518,0,0.008,0.013,0.021,0.031,0.043,0.05,0.057,0.064,0.069,0.075,0.013,0.018,0.012,0.007,0.007,0.007,0.005,0.006,0.018,0.014,,
519,0,0.004,0.009,0.015,0.029,0.041,0.045,0.054,0.062,0.067,0.07,0.009,0.02,0.012,0.004,0.009,0.008,0.005,0.003,0.016,0.013,,
520,0.001,0.005,0.01,0.02,0.032,0.042,0.049,0.056,0.063,0.07,0.074,0.009,0.022,0.01,0.007,0.007,0.007,0.007,0.004,0.018,0.014,,
521,-0.001,0.004,0.011,0.019,0.03,0.041,0.049,0.055,0.061,0.067,0.073,0.012,0.019,0.011,0.008,0.006,0.006,0.006,0.006,0.018,0.014,,
522,0,0.008,0.012,0.02,0.034,0.043,0.05,0.056,0.062,0.069,0.074,0.012,0.022,0.009,0.007,0.006,0.006,0.007,0.005,0.017,0.013,,
523,0,0.007,0.012,0.019,0.032,0.042,0.049,0.054,0.062,0.067,0.072,0.012,0.02,0.01,0.007,0.005,0.008,0.005,0.005,0.018,0.012,,
524,0,0.006,0.012,0.019,0.032,0.043,0.05,0.056,0.06,0.068,0.072,0.012,0.02,0.011,0.007,0.006,0.004,0.008,0.004,0.016,0.013,,
525,0.001,0.006,0.012,0.02,0.031,0.042,0.048,0.055,0.061,0.069,0.073,0.011,0.019,0.011,0.006,0.007,0.006,0.008,0.004,0.018,0.013,,
526,0,0.004,0.011,0.017,0.03,0.04,0.046,0.054,0.059,0.067,0.07,0.011,0.019,0.01,0.006,0.008,0.005,0.008,0.003,0.016,0.014,,
527,0,0.007,0.012,0.02,0.032,0.04,0.049,0.054,0.06,0.066,0.07,0.012,0.02,0.008,0.009,0.005,0.006,0.006,0.004,0.016,0.014,,
528,-0.001,0.008,0.011,0.017,0.028,0.04,0.046,0.052,0.058,0.064,0.07,0.012,0.017,0.012,0.006,0.006,0.006,0.006,0.006,0.018,0.012,,
529,0,0.007,0.013,0.019,0.031,0.042,0.047,0.056,0.059,0.066,0.072,0.013,0.018,0.011,0.005,0.009,0.003,0.007,0.006,0.016,0.014,,
530,0.001,0.007,0.012,0.019,0.033,0.042,0.049,0.053,0.06,0.066,0.071,0.011,0.021,0.009,0.007,0.004,0.007,0.006,0.005,0.018,0.011,,
531,-0.002,0.004,0.009,0.018,0.029,0.039,0.046,0.052,0.057,0.065,0.071,0.011,0.02,0.01,0.007,0.006,0.005,0.008,0.006,0.018,0.014,,
532,0.001,0.006,0.011,0.016,0.031,0.039,0.045,0.054,0.059,0.066,0.07,0.01,0.02,0.008,0.006,0.009,0.005,0.007,0.004,0.016,0.015,,
533,0.001,0.006,0.01,0.017,0.028,0.039,0.046,0.052,0.058,0.063,0.068,0.009,0.018,0.011,0.007,0.006,0.006,0.005,0.005,0.016,0.013,,
534,0.001,0.006,0.011,0.017,0.027,0.04,0.045,0.051,0.059,0.065,0.068,0.01,0.016,0.013,0.005,0.006,0.008,0.006,0.003,0.017,0.011,,
535,0.001,0.005,0.01,0.015,0.03,0.039,0.045,0.052,0.058,0.063,0.07,0.009,0.02,0.009,0.006,0.007,0.006,0.005,0.007,0.017,0.013,,
536,0.003,0.005,0.011,0.016,0.029,0.039,0.046,0.054,0.058,0.065,0.068,0.008,0.018,0.01,0.007,0.008,0.004,0.007,0.003,0.014,0.015,,
537,0,0.006,0.013,0.018,0.03,0.041,0.045,0.053,0.058,0.066,0.067,0.013,0.017,0.011,0.004,0.008,0.005,0.008,0.001,0.015,0.012,,
538,-0.001,0.005,0.011,0.016,0.028,0.038,0.043,0.049,0.057,0.062,0.067,0.012,0.017,0.01,0.005,0.006,0.008,0.005,0.005,0.017,0.011,,
539,0,0.006,0.01,0.017,0.029,0.038,0.044,0.05,0.056,0.062,0.066,0.01,0.019,0.009,0.006,0.006,0.006,0.006,0.004,0.016,0.013,,
540,0.001,0.007,0.01,0.016,0.029,0.039,0.045,0.051,0.058,0.063,0.066,0.009,0.019,0.01,0.006,0.006,0.007,0.005,0.003,0.015,0.012,,
541,0,0.004,0.011,0.016,0.027,0.038,0.043,0.05,0.056,0.062,0.067,0.011,0.016,0.011,0.005,0.007,0.006,0.006,0.005,0.016,0.012,,
542,0.002,0.006,0.011,0.017,0.03,0.037,0.046,0.051,0.058,0.063,0.066,0.009,0.019,0.007,0.009,0.005,0.007,0.005,0.003,0.015,0.014,,
543,-0.001,0.004,0.009,0.015,0.027,0.038,0.042,0.049,0.056,0.062,0.066,0.01,0.018,0.011,0.004,0.007,0.007,0.006,0.004,0.017,0.011,,
544,0.001,0.006,0.012,0.017,0.029,0.038,0.044,0.051,0.057,0.061,0.067,0.011,0.017,0.009,0.006,0.007,0.006,0.004,0.006,0.017,0.013,,
545,0,0.005,0.01,0.016,0.029,0.038,0.043,0.05,0.055,0.062,0.066,0.01,0.019,0.009,0.005,0.007,0.005,0.007,0.004,0.016,0.012,,
546,-0.002,0.003,0.008,0.015,0.026,0.035,0.041,0.047,0.054,0.06,0.064,0.01,0.018,0.009,0.006,0.006,0.007,0.006,0.004,0.017,0.012,,
547,-0.001,0.004,0.01,0.015,0.026,0.035,0.043,0.049,0.053,0.06,0.065,0.011,0.016,0.009,0.008,0.006,0.004,0.007,0.005,0.016,0.015,,
548,0,0.004,0.01,0.015,0.026,0.036,0.043,0.047,0.055,0.06,0.065,0.01,0.016,0.01,0.007,0.004,0.008,0.005,0.005,0.018,0.011,,
549,-0.002,0.004,0.009,0.014,0.026,0.035,0.04,0.046,0.052,0.059,0.062,0.011,0.017,0.009,0.005,0.006,0.006,0.007,0.003,0.016,0.011,,
550,-0.001,0.005,0.012,0.017,0.026,0.037,0.043,0.049,0.055,0.061,0.064,0.013,0.014,0.011,0.006,0.006,0.006,0.006,0.003,0.015,0.012,,
551,0.002,0.005,0.011,0.017,0.027,0.037,0.042,0.048,0.055,0.059,0.063,0.009,0.016,0.01,0.005,0.006,0.007,0.004,0.004,0.014,0.012,,
552,-0.002,0.004,0.009,0.015,0.025,0.034,0.04,0.045,0.052,0.056,0.063,0.011,0.016,0.009,0.006,0.005,0.007,0.004,0.007,0.018,0.011,,
553,0.002,0.006,0.012,0.017,0.027,0.035,0.043,0.048,0.053,0.06,0.065,0.01,0.015,0.008,0.008,0.005,0.005,0.007,0.005,0.016,0.013,,
554,-0.002,0.004,0.008,0.014,0.025,0.032,0.039,0.043,0.051,0.056,0.059,0.01,0.017,0.007,0.007,0.004,0.008,0.005,0.003,0.016,0.011,,
555,0,0.005,0.012,0.016,0.025,0.037,0.04,0.045,0.054,0.058,0.063,0.012,0.013,0.012,0.003,0.005,0.009,0.004,0.005,0.018,0.008,,
556,-0.001,0.003,0.008,0.014,0.024,0.034,0.04,0.045,0.051,0.056,0.06,0.009,0.016,0.01,0.006,0.005,0.006,0.005,0.004,0.015,0.011,,
557,0,0.003,0.009,0.011,0.024,0.033,0.037,0.044,0.049,0.055,0.06,0.009,0.015,0.009,0.004,0.007,0.005,0.006,0.005,0.016,0.011,,
558,-0.001,0.004,0.008,0.013,0.024,0.034,0.038,0.041,0.048,0.055,0.058,0.009,0.016,0.01,0.004,0.003,0.007,0.007,0.003,0.017,0.007,,
559,-0.002,0.002,0.009,0.012,0.023,0.032,0.036,0.042,0.048,0.054,0.057,0.011,0.014,0.009,0.004,0.006,0.006,0.006,0.003,0.015,0.01,,
560,-0.001,0.004,0.007,0.012,0.022,0.032,0.037,0.041,0.048,0.051,0.056,0.008,0.015,0.01,0.005,0.004,0.007,0.003,0.005,0.015,0.01,,
561,-0.002,0.005,0.009,0.013,0.023,0.032,0.038,0.043,0.05,0.055,0.06,0.011,0.014,0.009,0.006,0.005,0.007,0.005,0.005,0.017,0.01,,
562,-0.002,0.003,0.007,0.013,0.022,0.03,0.036,0.042,0.047,0.052,0.055,0.009,0.015,0.008,0.006,0.006,0.005,0.005,0.003,0.013,0.012,,
563,0,0.004,0.009,0.013,0.024,0.032,0.037,0.043,0.048,0.054,0.058,0.009,0.015,0.008,0.005,0.006,0.005,0.006,0.004,0.015,0.011,,
564,-0.001,0.005,0.007,0.013,0.022,0.03,0.037,0.042,0.048,0.053,0.056,0.008,0.015,0.008,0.007,0.005,0.006,0.005,0.003,0.014,0.012,,
565,0.001,0.004,0.008,0.014,0.023,0.031,0.036,0.042,0.048,0.055,0.057,0.007,0.015,0.008,0.005,0.006,0.006,0.007,0.002,0.015,0.011,,
566,0,0.005,0.009,0.014,0.021,0.03,0.037,0.041,0.048,0.053,0.057,0.009,0.012,0.009,0.007,0.004,0.007,0.005,0.004,0.016,0.011,,
567,0,0.005,0.01,0.016,0.023,0.033,0.038,0.041,0.049,0.054,0.057,0.01,0.013,0.01,0.005,0.003,0.008,0.005,0.003,0.016,0.008,,
568,-0.001,0.005,0.008,0.014,0.023,0.029,0.035,0.042,0.045,0.052,0.055,0.009,0.015,0.006,0.006,0.007,0.003,0.007,0.003,0.013,0.013,,
569,-0.001,0.004,0.007,0.012,0.019,0.026,0.034,0.037,0.044,0.051,0.053,0.008,0.012,0.007,0.008,0.003,0.007,0.007,0.002,0.016,0.011,,
570,0,0.003,0.007,0.011,0.02,0.029,0.034,0.039,0.044,0.05,0.054,0.007,0.013,0.009,0.005,0.005,0.005,0.006,0.004,0.015,0.01,,
571,0,0.005,0.009,0.014,0.023,0.029,0.035,0.04,0.046,0.053,0.055,0.009,0.014,0.006,0.006,0.005,0.006,0.007,0.002,0.015,0.011,,
572,-0.001,0.002,0.007,0.012,0.021,0.027,0.033,0.037,0.043,0.048,0.052,0.008,0.014,0.006,0.006,0.004,0.006,0.005,0.004,0.015,0.009,,
573,-0.001,0.002,0.006,0.011,0.02,0.026,0.032,0.038,0.043,0.049,0.051,0.007,0.014,0.006,0.006,0.006,0.005,0.006,0.002,0.013,0.012,,
574,0,0.003,0.009,0.011,0.019,0.028,0.034,0.038,0.043,0.049,0.053,0.009,0.01,0.009,0.006,0.004,0.005,0.006,0.004,0.015,0.01,,
575,0.001,0.004,0.007,0.011,0.019,0.028,0.034,0.039,0.044,0.048,0.052,0.006,0.012,0.009,0.006,0.005,0.005,0.004,0.004,0.013,0.011,,
576,0,0.004,0.009,0.014,0.02,0.028,0.032,0.037,0.043,0.049,0.052,0.009,0.011,0.008,0.004,0.005,0.006,0.006,0.003,0.015,0.009,,
577,0.001,0.003,0.009,0.013,0.02,0.027,0.032,0.04,0.044,0.049,0.052,0.008,0.011,0.007,0.005,0.008,0.004,0.005,0.003,0.012,0.013,,
578,-0.001,0.002,0.006,0.011,0.017,0.024,0.031,0.035,0.042,0.045,0.049,0.007,0.011,0.007,0.007,0.004,0.007,0.003,0.004,0.014,0.01,,
579,-0.002,0.001,0.006,0.01,0.017,0.025,0.029,0.034,0.039,0.045,0.048,0.008,0.011,0.008,0.004,0.005,0.005,0.006,0.003,0.014,0.009,,
580,-0.001,0.003,0.007,0.011,0.019,0.026,0.03,0.036,0.041,0.047,0.047,0.008,0.012,0.007,0.004,0.006,0.005,0.006,0,0.011,0.01,,
581,-0.001,0.003,0.008,0.012,0.019,0.026,0.031,0.035,0.041,0.045,0.049,0.009,0.011,0.007,0.005,0.004,0.006,0.004,0.004,0.014,0.009,,
582,-0.003,0.001,0.007,0.009,0.019,0.023,0.03,0.035,0.039,0.045,0.047,0.01,0.012,0.004,0.007,0.005,0.004,0.006,0.002,0.012,0.011,,
583,-0.001,0.002,0.007,0.011,0.017,0.023,0.029,0.034,0.038,0.045,0.047,0.008,0.01,0.006,0.006,0.005,0.004,0.007,0.002,0.013,0.011,,
584,0,0.004,0.006,0.01,0.017,0.025,0.029,0.035,0.039,0.044,0.047,0.006,0.011,0.008,0.004,0.006,0.004,0.005,0.003,0.012,0.011,,
585,0,0.002,0.006,0.012,0.017,0.025,0.028,0.034,0.038,0.043,0.046,0.006,0.011,0.008,0.003,0.006,0.004,0.005,0.003,0.012,0.009,,
586,0,0.003,0.007,0.011,0.018,0.026,0.03,0.034,0.039,0.044,0.048,0.007,0.011,0.008,0.004,0.004,0.005,0.005,0.004,0.014,0.008,,
587,-0.001,0.003,0.007,0.01,0.015,0.024,0.028,0.032,0.037,0.043,0.045,0.008,0.008,0.009,0.004,0.004,0.005,0.006,0.002,0.013,0.008,,
588,0.001,0.004,0.006,0.01,0.017,0.024,0.029,0.033,0.038,0.043,0.047,0.005,0.011,0.007,0.005,0.004,0.005,0.005,0.004,0.014,0.009,,
589,-0.001,0.003,0.006,0.01,0.017,0.024,0.029,0.033,0.037,0.042,0.045,0.007,0.011,0.007,0.005,0.004,0.004,0.005,0.003,0.012,0.008,,
590,0,0.004,0.007,0.011,0.016,0.023,0.026,0.031,0.035,0.041,0.044,0.007,0.009,0.007,0.003,0.005,0.004,0.006,0.003,0.013,0.008,,
591,-0.002,0.002,0.004,0.008,0.014,0.021,0.025,0.03,0.034,0.04,0.041,0.006,0.01,0.007,0.004,0.005,0.004,0.006,0.001,0.011,0.01,,
592,0,0.002,0.006,0.008,0.016,0.022,0.026,0.03,0.034,0.039,0.042,0.006,0.01,0.006,0.004,0.004,0.004,0.005,0.003,0.012,0.008,,
593,-0.002,0.001,0.005,0.007,0.013,0.021,0.023,0.027,0.033,0.036,0.04,0.007,0.008,0.008,0.002,0.004,0.006,0.003,0.004,0.013,0.007,,
594,-0.001,0.002,0.005,0.008,0.015,0.022,0.024,0.029,0.034,0.038,0.04,0.006,0.01,0.007,0.002,0.005,0.005,0.004,0.002,0.01,0.008,,
595,0,0.003,0.005,0.008,0.015,0.021,0.023,0.029,0.034,0.039,0.041,0.005,0.01,0.006,0.002,0.006,0.005,0.005,0.002,0.012,0.008,,
596,0,0.003,0.004,0.008,0.015,0.02,0.024,0.028,0.034,0.039,0.04,0.004,0.011,0.005,0.004,0.004,0.006,0.005,0.001,0.012,0.008,,
597,-0.001,0.002,0.006,0.009,0.013,0.021,0.024,0.03,0.033,0.038,0.041,0.007,0.007,0.008,0.003,0.006,0.003,0.005,0.003,0.011,0.008,,
598,-0.002,0.003,0.005,0.008,0.014,0.019,0.023,0.027,0.033,0.037,0.04,0.007,0.009,0.005,0.004,0.004,0.006,0.004,0.003,0.013,0.008,,
599,-0.001,0.001,0.005,0.007,0.012,0.02,0.022,0.026,0.032,0.035,0.037,0.006,0.007,0.008,0.002,0.004,0.006,0.003,0.002,0.011,0.006,,
600,-0.001,0.003,0.007,0.009,0.013,0.019,0.022,0.027,0.032,0.036,0.039,0.008,0.006,0.006,0.003,0.005,0.005,0.004,0.003,0.012,0.008,,
601,-0.001,0.001,0.004,0.008,0.012,0.018,0.022,0.025,0.031,0.034,0.036,0.005,0.008,0.006,0.004,0.003,0.006,0.003,0.002,0.011,0.008,,
602,0,0.002,0.005,0.007,0.012,0.018,0.022,0.025,0.031,0.034,0.036,0.005,0.007,0.006,0.004,0.003,0.006,0.003,0.002,0.011,0.007,,
603,-0.001,0.002,0.005,0.007,0.012,0.017,0.022,0.025,0.029,0.033,0.036,0.006,0.007,0.005,0.005,0.003,0.004,0.004,0.003,0.011,0.007,,
604,0.001,0.002,0.005,0.008,0.012,0.018,0.023,0.024,0.03,0.034,0.038,0.004,0.007,0.006,0.005,0.001,0.006,0.004,0.004,0.014,0.006,,
605,0,0.002,0.006,0.008,0.012,0.019,0.022,0.025,0.029,0.034,0.037,0.006,0.006,0.007,0.003,0.003,0.004,0.005,0.003,0.012,0.006,,
606,0,0.001,0.004,0.008,0.011,0.016,0.02,0.024,0.027,0.032,0.034,0.004,0.007,0.005,0.004,0.004,0.003,0.005,0.002,0.011,0.008,,
607,0,0.003,0.004,0.007,0.012,0.017,0.021,0.024,0.028,0.033,0.035,0.004,0.008,0.005,0.004,0.003,0.004,0.005,0.002,0.011,0.007,,
608,-0.001,0.003,0.005,0.008,0.012,0.017,0.02,0.024,0.028,0.033,0.034,0.006,0.007,0.005,0.003,0.004,0.004,0.005,0.001,0.01,0.006,,
609,0,0.002,0.005,0.008,0.012,0.016,0.02,0.023,0.028,0.032,0.033,0.005,0.007,0.004,0.004,0.003,0.005,0.004,0.001,0.01,0.007,,
610,0,0.002,0.005,0.007,0.01,0.017,0.02,0.022,0.027,0.031,0.034,0.005,0.005,0.007,0.003,0.002,0.005,0.004,0.003,0.012,0.005,,
611,-0.001,0.001,0.005,0.006,0.012,0.014,0.019,0.023,0.027,0.029,0.033,0.006,0.007,0.002,0.005,0.004,0.004,0.002,0.004,0.01,0.009,,
612,0.003,0.005,0.007,0.008,0.012,0.018,0.02,0.025,0.029,0.032,0.035,0.004,0.005,0.006,0.002,0.005,0.004,0.003,0.003,0.01,0.007,,
613,0,0.002,0.005,0.007,0.01,0.015,0.017,0.022,0.027,0.03,0.032,0.005,0.005,0.005,0.002,0.005,0.005,0.003,0.002,0.01,0.007,,
614,-0.001,0.002,0.004,0.005,0.009,0.013,0.017,0.022,0.024,0.029,0.031,0.005,0.005,0.004,0.004,0.005,0.002,0.005,0.002,0.009,0.008,,
615,0,0.003,0.005,0.006,0.01,0.015,0.019,0.021,0.024,0.03,0.033,0.005,0.005,0.005,0.004,0.002,0.003,0.006,0.003,0.012,0.006,,
616,0,0.001,0.003,0.004,0.009,0.012,0.017,0.019,0.021,0.026,0.028,0.003,0.006,0.003,0.005,0.002,0.002,0.005,0.002,0.009,0.007,,
617,-0.002,0,0.002,0.004,0.008,0.012,0.015,0.018,0.02,0.025,0.027,0.004,0.006,0.004,0.003,0.003,0.002,0.005,0.002,0.009,0.006,,
618,-0.001,0.002,0.002,0.004,0.008,0.011,0.016,0.018,0.021,0.026,0.027,0.003,0.006,0.003,0.005,0.002,0.003,0.005,0.001,0.009,0.008,,
619,0,0.002,0.004,0.006,0.009,0.013,0.016,0.021,0.023,0.025,0.028,0.004,0.005,0.004,0.003,0.005,0.002,0.002,0.003,0.008,0.007,,
620,0,0,0.005,0.006,0.008,0.013,0.016,0.018,0.022,0.027,0.027,0.005,0.003,0.005,0.003,0.002,0.004,0.005,0,0.009,0.005,,
621,-0.001,0,0.001,0.004,0.008,0.012,0.013,0.017,0.022,0.025,0.027,0.002,0.007,0.004,0.001,0.004,0.005,0.003,0.002,0.011,0.005,,
622,-0.001,0.002,0.001,0.004,0.005,0.011,0.013,0.017,0.02,0.024,0.026,0.002,0.004,0.006,0.002,0.004,0.003,0.004,0.002,0.008,0.006,,
623,-0.002,0.001,0.003,0.004,0.007,0.01,0.016,0.018,0.021,0.023,0.026,0.005,0.004,0.003,0.006,0.002,0.003,0.002,0.003,0.008,0.007,,
624,-0.001,0,0.002,0.003,0.006,0.01,0.013,0.016,0.019,0.023,0.024,0.003,0.004,0.004,0.003,0.003,0.003,0.004,0.001,0.008,0.006,,
625,0.001,0.001,0.001,0.005,0.008,0.012,0.013,0.017,0.02,0.024,0.025,0,0.007,0.004,0.001,0.004,0.003,0.004,0.001,0.007,0.005,,
626,-0.003,-0.001,0.003,0.002,0.004,0.008,0.011,0.016,0.016,0.019,0.022,0.006,0.001,0.004,0.003,0.005,0,0.003,0.003,0.006,0.008,,
627,0,0.002,0.003,0.004,0.006,0.01,0.014,0.015,0.018,0.022,0.024,0.003,0.003,0.004,0.004,0.001,0.003,0.004,0.002,0.009,0.005,,
628,-0.001,0.001,0.002,0.004,0.006,0.009,0.013,0.014,0.02,0.021,0.023,0.003,0.004,0.003,0.004,0.001,0.006,0.001,0.002,0.008,0.006,,
629,0.001,0.001,0.003,0.005,0.007,0.011,0.012,0.015,0.02,0.022,0.024,0.002,0.004,0.004,0.001,0.003,0.005,0.002,0.002,0.009,0.005,,
630,0,0.002,0.002,0.004,0.006,0.01,0.012,0.015,0.019,0.022,0.025,0.002,0.004,0.004,0.002,0.003,0.004,0.003,0.003,0.01,0.005,,
631,0,0,0.002,0.004,0.005,0.009,0.011,0.015,0.017,0.019,0.024,0.002,0.003,0.004,0.002,0.004,0.002,0.002,0.005,0.009,0.006,,
632,0.002,0.002,0.005,0.004,0.006,0.012,0.013,0.016,0.018,0.022,0.023,0.003,0.001,0.006,0.001,0.003,0.002,0.004,0.001,0.007,0.004,,
633,0,0,0.003,0.005,0.006,0.01,0.012,0.014,0.017,0.021,0.022,0.003,0.003,0.004,0.002,0.002,0.003,0.004,0.001,0.008,0.004,,
634,-0.001,0.001,0.002,0.002,0.005,0.008,0.012,0.013,0.017,0.021,0.021,0.003,0.003,0.003,0.004,0.001,0.004,0.004,0,0.008,0.005,,
635,0,0.003,0.002,0.003,0.005,0.01,0.011,0.015,0.018,0.02,0.022,0.002,0.003,0.005,0.001,0.004,0.003,0.002,0.002,0.006,0.006,,
636,-0.001,0.001,0,0.002,0.004,0.008,0.009,0.012,0.015,0.019,0.019,0.001,0.004,0.004,0.001,0.003,0.003,0.004,0,0.007,0.004,,
637,0,0.001,0.003,0.004,0.004,0.009,0.007,0.013,0.015,0.018,0.019,0.003,0.001,0.005,-0.002,0.006,0.002,0.003,0.001,0.005,0.004,,
638,-0.001,0,0.002,0.002,0.005,0.007,0.01,0.012,0.015,0.015,0.019,0.003,0.003,0.002,0.003,0.002,0.003,0,0.004,0.007,0.005,,
639,0,0.001,0.002,0.002,0.006,0.009,0.01,0.013,0.016,0.017,0.019,0.002,0.004,0.003,0.001,0.003,0.003,0.001,0.002,0.005,0.004,,
640,-0.001,0.001,0.002,0.004,0.005,0.008,0.01,0.013,0.015,0.018,0.017,0.003,0.003,0.003,0.002,0.003,0.002,0.003,-0.001,0.004,0.005,,
641,0,-0.001,0,0.001,0.004,0.006,0.008,0.01,0.012,0.015,0.017,0,0.004,0.002,0.002,0.002,0.002,0.003,0.002,0.007,0.004,,
642,-0.001,0.002,0.001,0.003,0.005,0.009,0.01,0.013,0.014,0.018,0.018,0.002,0.004,0.004,0.001,0.003,0.001,0.004,0,0.005,0.004,,
643,0,0.001,0.003,0.005,0.005,0.008,0.008,0.012,0.015,0.017,0.018,0.003,0.002,0.003,0,0.004,0.003,0.002,0.001,0.007,0.004,,
644,0,0.003,0.002,0.004,0.005,0.008,0.009,0.011,0.016,0.018,0.019,0.002,0.003,0.003,0.001,0.002,0.005,0.002,0.001,0.007,0.003,,
645,0.002,0.003,0.004,0.005,0.006,0.008,0.01,0.012,0.015,0.016,0.019,0.002,0.002,0.002,0.002,0.002,0.003,0.001,0.003,0.007,0.004,,
646,-0.001,0.001,0.002,0.003,0.006,0.005,0.008,0.011,0.013,0.015,0.016,0.003,0.004,-0.001,0.003,0.003,0.002,0.002,0.001,0.006,0.005,,
647,0,0.002,0.002,0.003,0.004,0.008,0.009,0.012,0.013,0.015,0.016,0.002,0.002,0.004,0.001,0.003,0.001,0.002,0.001,0.004,0.004,,
648,0,0.001,0.002,0.003,0.003,0.007,0.008,0.011,0.012,0.014,0.016,0.002,0.001,0.004,0.001,0.003,0.001,0.002,0.002,0.005,0.004,,
649,0,0,0.001,0.003,0.004,0.006,0.009,0.009,0.011,0.014,0.016,0.001,0.003,0.002,0.003,0,0.002,0.003,0.002,0.007,0.003,,
650,0,-0.001,0.003,0.002,0.005,0.006,0.006,0.009,0.011,0.013,0.014,0.003,0.002,0.001,0,0.003,0.002,0.002,0.001,0.006,0.003,,
651,-0.001,-0.001,0.001,0.002,0.002,0.004,0.005,0.007,0.009,0.012,0.013,0.002,0.001,0.002,0.001,0.002,0.002,0.003,0.001,0.006,0.004,,
652,-0.002,-0.002,0.001,0.002,0.002,0.004,0.005,0.007,0.01,0.013,0.014,0.003,0.001,0.002,0.001,0.002,0.003,0.003,0.001,0.007,0.003,,
653,-0.002,-0.001,0.001,0.001,0.001,0.003,0.005,0.007,0.009,0.012,0.013,0.003,0,0.002,0.002,0.002,0.002,0.003,0.001,0.006,0.004,,
654,0,0.001,0,0.001,0.003,0.006,0.007,0.008,0.011,0.012,0.014,0,0.003,0.003,0.001,0.001,0.003,0.001,0.002,0.006,0.003,,
655,0.001,0.003,0.002,0.002,0.003,0.005,0.006,0.01,0.009,0.013,0.014,0.001,0.001,0.002,0.001,0.004,-0.001,0.004,0.001,0.004,0.005,,
656,0,0,0.001,0.001,0.002,0.004,0.006,0.007,0.009,0.011,0.013,0.001,0.001,0.002,0.002,0.001,0.002,0.002,0.002,0.006,0.004,,
657,-0.001,-0.001,0.002,0.002,0.002,0.005,0.005,0.006,0.009,0.013,0.013,0.003,0,0.003,0,0.001,0.003,0.004,0,0.007,0.001,,
658,0.002,0.001,0.003,0.002,0.003,0.003,0.004,0.009,0.01,0.013,0.012,0.001,0,0,0.001,0.005,0.001,0.003,-0.001,0.003,0.006,,
659,-0.003,-0.002,0.001,0.001,0.001,0.004,0.005,0.006,0.009,0.011,0.01,0.004,0,0.003,0.001,0.001,0.003,0.002,-0.001,0.004,0.003,,
660,-0.001,0,-0.002,0,0.001,0.003,0.005,0.007,0.01,0.01,0.012,-0.001,0.003,0.002,0.002,0.002,0.003,0,0.002,0.004,0.004,,
661,-0.002,0,-0.001,0.001,0.002,0.003,0.003,0.004,0.007,0.009,0.011,0.001,0.003,0.001,0,0.001,0.003,0.002,0.002,0.006,0.001,,
662,0,0.001,0.002,0.003,0.003,0.003,0.006,0.006,0.009,0.012,0.013,0.002,0.001,0,0.003,0,0.003,0.003,0.001,0.006,0.003,,
663,-0.001,-0.002,0.002,-0.001,0.003,0.003,0.004,0.007,0.008,0.009,0.011,0.003,0.001,0,0.001,0.003,0.001,0.001,0.002,0.004,0.004,,
664,0,0.001,0.003,0.004,0.006,0.006,0.008,0.007,0.01,0.01,0.011,0.003,0.003,0,0.002,-0.001,0.003,0,0.001,0.004,0.001,,
665,-0.002,-0.001,0.002,0,0.001,0.005,0.005,0.005,0.008,0.01,0.01,0.004,-0.001,0.004,0,0,0.003,0.002,0,0.005,0,,
666,0.003,0.002,0.001,0.005,0.002,0.005,0.005,0.008,0.009,0.009,0.013,-0.002,0.001,0.003,0,0.003,0.001,0,0.004,0.005,0.003,,
667,0.002,0.002,0.001,0.002,0.002,0.006,0.006,0.007,0.009,0.01,0.014,-0.001,0.001,0.004,0,0.001,0.002,0.001,0.004,0.007,0.001,,
668,0,0,0.002,0.002,0.002,0.006,0.005,0.007,0.011,0.011,0.009,0.002,0,0.004,-0.001,0.002,0.004,0,-0.002,0.003,0.001,,
669,0.003,0.002,0.004,0.004,0.003,0.005,0.006,0.009,0.008,0.011,0.012,0.001,-0.001,0.002,0.001,0.003,-0.001,0.003,0.001,0.004,0.004,,
670,-0.001,0,0.001,0.002,0.001,0.004,0.004,0.008,0.008,0.008,0.009,0.002,0,0.003,0,0.004,0,0,0.001,0.001,0.004,,
671,-0.002,-0.003,0.001,0.002,0.001,0.004,0.001,0.005,0.006,0.007,0.007,0.003,0,0.003,-0.003,0.004,0.001,0.001,0,0.002,0.001,,
672,0.001,0,0,0.003,0.002,0.002,0.006,0.005,0.006,0.007,0.01,-0.001,0.002,0,0.004,-0.001,0.001,0.001,0.003,0.005,0.003,,
673,-0.002,-0.002,-0.003,0,0,0.004,0.004,0.002,0.007,0.006,0.006,-0.001,0.003,0.004,0,-0.002,0.005,-0.001,0,0.004,-0.002,,
674,-0.001,-0.001,0,0.001,-0.002,0.002,0.002,0.001,0.005,0.006,0.005,0.001,-0.002,0.004,0,-0.001,0.004,0.001,-0.001,0.004,-0.001,,
675,-0.001,-0.002,0.003,0.002,0.002,0.003,0.004,0.004,0.005,0.007,0.008,0.004,-0.001,0.001,0.001,0,0.001,0.002,0.001,0.004,0.001,,
676,-0.001,-0.001,0.002,0.001,0.002,0.001,0.002,0.004,0.004,0.006,0.007,0.003,0,-0.001,0.001,0.002,0,0.002,0.001,0.002,0.004,,
677,0,0.001,0.001,-0.001,0.001,0.003,0.002,0.006,0.007,0.01,0.006,0.001,0,0.002,-0.001,0.004,0.001,0.003,-0.004,0.001,0.003,,
678,0.003,0.002,0.003,0.003,0.002,0.007,0.005,0.007,0.008,0.009,0.009,0,-0.001,0.005,-0.002,0.002,0.001,0.001,0,0.003,0,,
679,-0.001,-0.001,-0.001,0.001,0.003,0.003,0.004,0.003,0.007,0.007,0.007,0,0.004,0,0.001,-0.001,0.004,0,0,0.004,0,,
680,0,-0.001,0.001,0,0.002,0.002,0.005,0.006,0.007,0.007,0.007,0.001,0.001,0,0.003,0.001,0.001,0,0,0.001,0.005,,
681,0,-0.001,0.002,0.003,0.001,0.006,0.005,0.004,0.007,0.005,0.009,0.002,-0.001,0.005,-0.001,-0.001,0.003,-0.002,0.004,0.005,-0.002,,
682,-0.002,0,0,-0.001,0.001,0.002,-0.002,0.003,0.006,0.006,0.004,0.002,0.001,0.001,-0.004,0.005,0.003,0,-0.002,0.001,0.001,,
683,-0.003,0,-0.001,0.001,0,0.002,0.001,0.003,0.006,0.007,0.006,0.002,0.001,0.002,-0.001,0.002,0.003,0.001,-0.001,0.003,0.001,,
684,0.001,0,0.003,0.001,0.001,0.003,0.002,0.005,0.003,0.004,0.006,0.002,-0.002,0.002,-0.001,0.003,-0.002,0.001,0.002,0.001,0.002,,
685,0.003,0.002,0,0.002,0.002,0.005,0.004,0.006,0.007,0.008,0.006,-0.003,0.002,0.003,-0.001,0.002,0.001,0.001,-0.002,0,0.001,,
686,-0.002,0,-0.002,0,-0.001,0,0.002,0.002,0.001,0.001,0.004,0,0.001,0.001,0.002,0,-0.001,0,0.003,0.002,0.002,,
687,-0.003,-0.001,-0.003,0.001,0,0.001,-0.001,0,0.002,0.006,0.005,0,0.003,0.001,-0.002,0.001,0.002,0.004,-0.001,0.005,-0.001,,
688,-0.001,-0.004,-0.001,0,0.001,0,0,0.002,0.003,0.002,0.004,0,0.002,-0.001,0,0.002,0.001,-0.001,0.002,0.002,0.002,,
689,-0.004,0,0.001,-0.002,0.001,0.002,-0.003,0.001,0.001,0.004,0.004,0.005,0,0.001,-0.005,0.004,0,0.003,0,0.003,-0.001,,
690,-0.001,-0.001,0.001,-0.001,0,-0.001,0.002,0.002,0.002,0.004,0.006,0.002,-0.001,-0.001,0.003,0,0,0.002,0.002,0.004,0.003,,
691,-0.003,-0.002,-0.001,-0.002,-0.002,-0.002,0,0.001,0.002,0.003,0.001,0.002,-0.001,0,0.002,0.001,0.001,0.001,-0.002,0,0.003,,
692,0,0.001,0.001,0.002,0.001,0,0,0.003,0.002,0.007,0.005,0.001,0,-0.001,0,0.003,-0.001,0.005,-0.002,0.002,0.003,,
693,0.002,-0.001,0.001,0,0.002,-0.001,0.003,0.003,0.002,0.005,0.004,-0.001,0.001,-0.003,0.004,0,-0.001,0.003,-0.001,0.001,0.003,,
694,-0.002,0,0.003,-0.001,0,0.002,0.003,0.003,0.003,0.006,0.005,0.005,-0.003,0.002,0.001,0,0,0.003,-0.001,0.002,0.001,,
695,-0.003,-0.002,-0.001,0,-0.001,-0.001,0.001,0.004,0.002,0.003,0.002,0.002,0,0,0.002,0.003,-0.002,0.001,-0.001,-0.002,0.004,,
696,0.003,0,0.001,0.001,0.003,-0.001,0,0.002,0.003,0.004,0.006,-0.002,0.002,-0.004,0.001,0.002,0.001,0.001,0.002,0.004,0.003,,
697,-0.002,-0.001,0,-0.004,0,-0.001,-0.001,0.002,0.002,0.003,0.004,0.002,0,-0.001,0,0.003,0,0.001,0.001,0.002,0.003,,
698,-0.001,-0.004,0,-0.002,-0.001,0.001,-0.001,0.003,0.003,0.003,0.004,0.001,-0.001,0.002,-0.002,0.004,0,0,0.001,0.001,0.002,,
699,0.004,0.003,0.004,0.002,0.001,0.002,0.002,0.003,0.005,0.008,0.008,0,-0.003,0.001,0,0.001,0.002,0.003,0,0.005,0,,
700,-0.003,-0.003,0,0,-0.002,0.001,-0.002,0.001,0.002,0.003,0.002,0.003,-0.002,0.003,-0.003,0.003,0.001,0.001,-0.001,0.001,0,,
701,0,-0.001,0.002,0.002,0.002,0,0,0.001,0.002,0.005,0.004,0.002,0,-0.002,0,0.001,0.001,0.003,-0.001,0.003,0.001,,
702,-0.002,-0.001,0,-0.002,0,0.001,0.001,0.002,0.004,0.003,0,0.002,0,0.001,0,0.001,0.002,-0.001,-0.003,-0.001,0.001,,
703,-0.003,-0.006,-0.005,-0.005,-0.005,-0.001,-0.003,-0.002,-0.001,0,-0.002,-0.002,0,0.004,-0.002,0.001,0.001,0.001,-0.002,0,-0.001,,
704,0.002,0,0,0,0.001,0.002,0.001,0.002,0.004,0.003,0.003,-0.002,0.001,0.001,-0.001,0.001,0.002,-0.001,0,0.001,0.001,,
705,0,-0.001,0.003,0.002,0.004,0.004,0.004,0.002,0.006,0.004,0.004,0.003,0.001,0,0,-0.002,0.004,-0.002,0,0.002,-0.001,,
706,-0.003,-0.001,-0.001,-0.004,-0.002,-0.001,-0.003,-0.001,0.001,0,-0.001,0.002,-0.001,0.001,-0.002,0.002,0.002,-0.001,-0.001,0,0.001,,
707,0.002,0.001,-0.001,0.001,0,0.004,0.003,0.002,0.003,0.001,0.003,-0.003,0.001,0.004,-0.001,-0.001,0.001,-0.002,0.002,0.001,-0.002,,
708,0.001,0.003,0,0.002,0,0.001,0.002,0.001,0.004,0.004,0.002,-0.001,0,0.001,0.001,-0.001,0.003,0,-0.002,0.001,0,,
709,0,-0.001,-0.002,-0.001,-0.001,-0.002,-0.001,0.002,0.002,0.001,0,-0.002,0.001,-0.001,0.001,0.003,0,-0.001,-0.001,-0.002,0.004,,
710,0,0,0.002,0,0.002,0,0,0,0.002,0.001,0.004,0.002,0,-0.002,0,0,0.002,-0.001,0.003,0.004,0,,
711,-0.001,0,-0.001,-0.001,0,0,0.001,-0.002,-0.001,0.001,0.001,0,0.001,0,0.001,-0.003,0.001,0.002,0,0.004,-0.002,,
712,0,-0.001,-0.001,0.002,-0.002,-0.002,-0.001,-0.004,0.004,0,-0.001,-0.001,-0.001,0,0.001,-0.003,0.008,-0.004,-0.001,0.002,-0.002,,
713,-0.001,-0.003,0,0,-0.003,-0.002,-0.003,-0.001,-0.002,-0.003,-0.004,0.001,-0.003,0.001,-0.001,0.002,-0.001,-0.001,-0.001,-0.003,0.001,,
714,0,0,-0.002,0,-0.003,-0.001,-0.003,0.001,-0.004,-0.002,-0.003,-0.002,-0.001,0.002,-0.002,0.004,-0.005,0.002,-0.001,-0.004,0.002,,
715,0.001,-0.002,0,-0.002,-0.001,-0.003,0,-0.003,-0.001,0.001,0.001,-0.001,-0.001,-0.002,0.003,-0.003,0.002,0.002,0,0.004,-0.001,,
716,-0.002,-0.002,-0.002,0,-0.002,-0.002,-0.002,-0.002,-0.002,0,0,0,0,0,0,0,0,0.002,0,0.002,0,,
717,-0.004,-0.005,-0.005,-0.004,-0.004,-0.003,-0.005,-0.002,-0.003,-0.001,0,-0.001,0.001,0.001,-0.002,0.003,-0.001,0.002,0.001,0.002,0.001,,
718,-0.001,0.001,-0.004,-0.003,0.001,0,-0.002,-0.005,-0.006,0,-0.001,-0.003,0.005,-0.001,-0.002,-0.003,-0.001,0.006,-0.001,0.004,-0.005,,
719,-0.002,0.001,0.003,0,-0.002,-0.001,-0.006,0.001,0.004,0.001,0.003,0.005,-0.005,0.001,-0.005,0.007,0.003,-0.003,0.002,0.002,0.002,,
720,-0.001,-0.002,-0.002,-0.004,-0.003,-0.003,-0.004,0.001,-0.004,-0.003,0.003,-0.001,-0.001,0,-0.001,0.005,-0.005,0.001,0.006,0.002,0.004,,
721,0,0,-0.002,0,-0.002,-0.002,0,-0.001,0,0.004,-0.001,-0.002,0,0,0.002,-0.001,0.001,0.004,-0.005,0,0.001,,
722,-0.003,-0.006,-0.001,0,-0.003,-0.004,-0.004,-0.003,-0.001,-0.004,-0.006,0.002,-0.002,-0.001,0,0.001,0.002,-0.003,-0.002,-0.003,0.001,,
723,0,-0.004,-0.001,-0.003,-0.003,-0.001,-0.005,-0.003,-0.002,-0.003,0.002,-0.001,-0.002,0.002,-0.004,0.002,0.001,-0.001,0.005,0.004,-0.002,,
724,-0.005,-0.002,0.002,-0.003,-0.003,-0.003,-0.002,-0.005,-0.002,-0.002,0,0.007,-0.005,0,0.001,-0.003,0.003,0,0.002,0.005,-0.002,,
725,-0.001,-0.001,0.001,-0.002,0,-0.005,-0.001,0,-0.003,0,-0.003,0.002,-0.001,-0.005,0.004,0.001,-0.003,0.003,-0.003,-0.003,0.005,,
726,-0.002,-0.006,0.001,-0.004,-0.002,-0.007,-0.003,-0.007,-0.007,-0.005,-0.007,0.003,-0.003,-0.005,0.004,-0.004,0,0.002,-0.002,0,0,,
727,0,-0.001,-0.001,-0.003,-0.003,-0.002,-0.001,-0.002,0,0.001,-0.005,-0.001,-0.002,0.001,0.001,-0.001,0.002,0.001,-0.006,-0.002,-0.001,,
728,-0.003,-0.001,-0.002,-0.001,-0.006,0,-0.003,-0.001,-0.003,-0.005,-0.004,0.001,-0.004,0.006,-0.003,0.002,-0.002,-0.002,0.001,-0.002,-0.001,,
729,0.002,-0.005,-0.002,-0.003,0,-0.005,-0.01,-0.001,-0.004,-0.004,-0.007,-0.004,0.002,-0.005,-0.005,0.009,-0.003,0,-0.003,-0.006,0.004,,
730,-0.004,-0.004,-0.004,-0.003,-0.007,0.001,-0.005,-0.004,-0.002,-0.007,-0.003,0,-0.003,0.008,-0.006,0.001,0.002,-0.005,0.004,0.001,-0.004,,
731,0.005,-0.002,0,-0.001,-0.003,0.002,0.001,0.003,0,-0.002,-0.003,-0.005,-0.003,0.005,-0.001,0.002,-0.003,-0.002,-0.001,-0.006,0.001,,
732,0.004,-0.004,-0.003,-0.004,-0.005,-0.004,-0.003,-0.003,-0.001,-0.005,-0.006,-0.007,-0.002,0.001,0.001,0,0.002,-0.004,-0.001,-0.003,0,,
733,0.002,0.001,0.002,0,-0.004,-0.002,0.001,-0.002,-0.003,0,-0.001,0,-0.006,0.002,0.003,-0.003,-0.001,0.003,-0.001,0.001,0,,
734,0,0.003,-0.006,0.002,-0.003,0,-0.002,-0.005,-0.007,0,-0.004,-0.006,0.003,0.003,-0.002,-0.003,-0.002,0.007,-0.004,0.001,-0.005,,
735,0.001,0,-0.001,-0.004,-0.003,0.002,-0.001,0,-0.004,-0.003,-0.003,-0.002,-0.002,0.005,-0.003,0.001,-0.004,0.001,0,-0.003,-0.002,,
736,0.005,-0.001,0.001,-0.001,-0.002,0.001,-0.007,-0.005,-0.003,-0.002,-0.004,-0.004,-0.003,0.003,-0.008,0.002,0.002,0.001,-0.002,0.001,-0.006,,
737,-0.001,-0.001,-0.002,-0.006,-0.008,-0.009,-0.007,-0.005,-0.007,-0.005,-0.001,-0.001,-0.006,-0.001,0.002,0.002,-0.002,0.002,0.004,0.004,0.005,,
738,-0.008,-0.005,-0.008,-0.006,-0.01,-0.006,-0.013,-0.012,-0.007,-0.004,-0.01,0,-0.002,0.004,-0.007,0.001,0.005,0.003,-0.006,0.002,-0.006,,
739,-0.006,-0.001,-0.005,-0.002,-0.008,-0.002,-0.006,-0.008,-0.007,-0.006,-0.007,0.001,-0.003,0.006,-0.004,-0.002,0.001,0.001,-0.001,0.001,-0.006,,
740,0.005,-0.001,0,-0.001,-0.001,0.002,-0.003,-0.002,-0.004,0.001,-0.005,-0.005,-0.001,0.003,-0.005,0.001,-0.002,0.005,-0.006,-0.003,-0.004,,
741,0.001,-0.006,-0.003,0.003,-0.002,-0.007,-0.004,-0.007,-0.007,-0.004,-0.005,-0.004,0.001,-0.005,0.003,-0.003,0,0.003,-0.001,0.002,0,,
742,-0.008,-0.008,-0.007,-0.006,-0.01,-0.006,-0.009,-0.013,-0.006,-0.006,-0.009,0.001,-0.003,0.004,-0.003,-0.004,0.007,0,-0.003,0.004,-0.007,,
743,0.006,0.004,0.007,0.004,0.005,0.003,0.003,0.001,0.002,0.004,-0.002,0.001,-0.002,-0.002,0,-0.002,0.001,0.002,-0.006,-0.003,-0.003,,
744,0.008,0.003,0.008,0.003,0.001,0.002,0.002,-0.002,0.002,0.005,0.005,0,-0.007,0.001,0,-0.004,0.004,0.003,0,0.007,-0.004,,
745,0.004,0.004,0.001,-0.001,0.002,-0.007,-0.002,0.002,-0.006,-0.004,-0.005,-0.003,0.001,-0.009,0.005,0.004,-0.008,0.002,-0.001,-0.007,0.009,,
746,0.007,0.005,0.008,0.006,0.002,0.006,0.001,-0.003,0.006,0,0.003,0.001,-0.006,0.004,-0.005,-0.004,0.009,-0.006,0.003,0.007,-0.01,,
747,0.008,0,-0.001,-0.002,-0.004,-0.003,0.005,-0.005,-0.004,-0.003,-0.013,-0.009,-0.003,0.001,0.008,-0.01,0.001,0.001,-0.01,-0.009,-0.002,,
748,0.004,0.005,-0.002,0.006,0,0,-0.005,0.001,0.001,-0.006,-0.003,-0.006,0.002,0,-0.005,0.006,0,-0.007,0.003,-0.003,0.001,,
749,0.003,0.002,0,0.006,0.004,0.005,-0.007,0,-0.001,0.001,0.003,-0.003,0.004,0.001,-0.012,0.007,-0.001,0.002,0.002,0.003,-0.005,,
750,0.004,0.002,0.002,0.001,0.002,0,-0.003,-0.002,-0.002,-0.003,-0.006,-0.002,0,-0.002,-0.003,0.001,0,-0.001,-0.003,-0.004,-0.001,,
751,0,-0.002,-0.001,-0.001,0.002,-0.001,0,-0.002,-0.006,-0.005,-0.004,-0.001,0.003,-0.003,0.001,-0.002,-0.004,0.001,0.001,-0.003,0,,
752,-0.005,-0.009,-0.002,-0.004,-0.004,-0.005,-0.007,-0.013,-0.003,-0.011,-0.012,0.003,-0.002,-0.001,-0.002,-0.006,0.01,-0.008,-0.001,0,-0.008,,
753,-0.002,0.001,-0.001,-0.002,-0.002,-0.007,-0.005,-0.006,-0.004,-0.009,-0.005,0.001,-0.001,-0.005,0.002,-0.001,0.002,-0.005,0.004,0,0.001,,
754,0.003,0,0.002,0.003,-0.007,-0.005,-0.002,-0.007,-0.005,-0.005,-0.002,-0.001,-0.009,0.002,0.003,-0.005,0.002,0,0.003,0.006,-0.002,,
755,0,0.004,0.003,0,-0.002,-0.002,-0.004,-0.001,-0.005,-0.008,-0.008,0.003,-0.005,0,-0.002,0.003,-0.004,-0.003,0,-0.007,0,,
756,-0.005,-0.002,-0.002,-0.004,-0.002,-0.004,-0.002,-0.007,-0.002,-0.004,-0.009,0.003,0,-0.002,0.002,-0.005,0.005,-0.002,-0.005,-0.002,-0.003,,
757,-0.004,-0.002,-0.001,-0.003,-0.003,-0.001,-0.01,-0.006,-0.006,-0.012,-0.014,0.003,-0.002,0.002,-0.009,0.004,0,-0.006,-0.002,-0.009,-0.004,,
758,-0.005,-0.007,-0.003,0,-0.001,-0.008,-0.013,-0.006,-0.005,-0.01,-0.009,0.002,0.002,-0.007,-0.005,0.007,0.001,-0.005,0.001,-0.002,0.001,,
759,-0.002,-0.003,-0.003,-0.004,0,-0.004,-0.013,-0.011,-0.004,-0.015,-0.008,-0.001,0.003,-0.004,-0.009,0.002,0.007,-0.011,0.007,0.003,-0.007,,
760,-0.005,-0.004,-0.006,-0.008,-0.006,-0.007,-0.011,-0.011,-0.013,-0.003,-0.014,-0.001,0,-0.001,-0.004,0,-0.002,0.01,-0.011,-0.004,-0.004,,
761,-0.002,-0.006,0.004,-0.001,-0.002,0,-0.003,-0.004,-0.002,-0.006,-0.006,0.006,-0.006,0.002,-0.003,-0.001,0.002,-0.004,0,-0.002,-0.005,,
762,0.001,0.008,0.002,0.005,0.006,0,0.001,-0.005,0,0.001,0.004,0.001,0.004,-0.006,0.001,-0.006,0.005,0.001,0.003,0.008,-0.005,,
763,0.005,0,0.003,-0.001,0.005,-0.005,0,-0.006,-0.005,-0.005,-0.007,-0.002,0.002,-0.01,0.005,-0.006,0.001,0,-0.002,-0.001,-0.001,,
764,-0.003,-0.006,-0.001,-0.003,-0.007,-0.003,-0.009,-0.005,-0.005,-0.007,-0.012,0.002,-0.006,0.004,-0.006,0.004,0,-0.002,-0.005,-0.007,-0.002,,
765,0.002,0.002,0,0.002,0.001,-0.008,-0.004,-0.005,-0.01,-0.005,-0.016,-0.002,0.001,-0.009,0.004,-0.001,-0.005,0.005,-0.011,-0.011,0.003,,
766,0.001,0,0,-0.002,-0.005,-0.004,-0.014,-0.008,-0.007,-0.007,-0.015,-0.001,-0.005,0.001,-0.01,0.006,0.001,0,-0.008,-0.007,-0.004,,
767,-0.001,-0.003,-0.008,-0.004,-0.015,-0.011,-0.005,-0.01,-0.004,-0.01,-0.008,-0.007,-0.007,0.004,0.006,-0.005,0.006,-0.006,0.002,0.003,0.001,,
768,0.002,0.001,-0.006,0.002,0,-0.002,-0.012,0.003,-0.011,-0.006,-0.013,-0.008,0.006,-0.002,-0.01,0.015,-0.014,0.005,-0.007,-0.016,0.005,,
769,-0.003,-0.006,-0.001,-0.008,-0.01,-0.007,-0.011,-0.006,-0.01,-0.011,-0.014,0.002,-0.009,0.003,-0.004,0.005,-0.004,-0.001,-0.003,-0.008,0,,
770,-0.005,-0.006,-0.007,-0.001,-0.007,-0.008,-0.009,-0.014,-0.013,-0.017,-0.019,-0.002,0,-0.001,-0.001,-0.005,0.001,-0.004,-0.002,-0.006,-0.006,,
771,-0.003,0.002,0.005,-0.001,-0.006,-0.007,-0.007,-0.005,-0.008,-0.005,-0.004,0.008,-0.011,-0.001,0,0.002,-0.003,0.003,0.001,0.002,0.001,,
772,0.004,-0.004,0.003,-0.007,-0.004,-0.011,-0.007,0,-0.008,-0.01,-0.001,-0.001,-0.007,-0.007,0.004,0.007,-0.008,-0.002,0.009,-0.001,0.011,,
773,-0.001,0.001,0.004,-0.005,-0.005,-0.005,-0.007,-0.004,-0.008,-0.005,-0.006,0.005,-0.009,0,-0.002,0.003,-0.004,0.003,-0.001,-0.001,0.001,,
774,-0.006,-0.006,0.001,-0.005,-0.007,-0.008,-0.014,-0.007,-0.009,-0.004,-0.01,0.007,-0.008,-0.001,-0.006,0.007,-0.002,0.005,-0.006,-0.003,0.001,,
775,-0.005,0.006,-0.004,-0.003,-0.006,-0.004,-0.007,-0.009,-0.01,-0.011,-0.006,0.001,-0.002,0.002,-0.003,-0.002,-0.001,-0.001,0.005,0.002,-0.005,,
776,-0.003,-0.003,-0.011,-0.009,-0.009,-0.011,-0.015,-0.01,-0.014,-0.012,-0.024,-0.008,0.002,-0.002,-0.004,0.005,-0.004,0.002,-0.012,-0.014,0.001,,
777,-0.005,-0.017,-0.01,-0.01,-0.01,-0.011,-0.016,-0.019,-0.014,-0.024,-0.017,-0.005,0,-0.001,-0.005,-0.003,0.005,-0.01,0.007,0.002,-0.008,,
778,-0.01,0,0.009,-0.006,-0.004,-0.004,-0.009,-0.003,-0.005,-0.007,-0.011,0.019,-0.013,0,-0.005,0.006,-0.002,-0.002,-0.004,-0.007,0.001,,
779,0.002,-0.009,-0.002,-0.007,-0.005,-0.007,-0.012,-0.011,-0.01,-0.012,-0.016,-0.004,-0.003,-0.002,-0.005,0.001,0.001,-0.002,-0.004,-0.006,-0.003,,
780,-0.006,-0.005,-0.017,-0.004,-0.012,-0.009,-0.005,-0.013,-0.012,-0.014,-0.018,-0.011,0.005,0.003,0.004,-0.008,0.001,-0.002,-0.004,-0.005,-0.004,,
781,0,0.005,-0.001,-0.004,0.002,-0.001,-0.001,-0.005,-0.014,-0.002,-0.019,-0.001,0.003,-0.003,0,-0.004,-0.009,0.012,-0.017,-0.014,-0.004,,
782,-0.008,-0.008,-0.005,0,-0.011,0.001,-0.009,-0.007,-0.003,-0.014,-0.015,0.003,-0.006,0.012,-0.01,0.002,0.004,-0.011,-0.001,-0.008,-0.008,,
783,-0.002,-0.004,0.003,-0.003,-0.011,-0.004,0.002,-0.006,-0.008,-0.017,-0.009,0.005,-0.014,0.007,0.006,-0.008,-0.002,-0.009,0.008,-0.003,-0.002,,
784,-0.002,-0.001,-0.014,-0.01,-0.011,-0.015,-0.011,-0.017,-0.017,-0.014,-0.022,-0.012,0.003,-0.004,0.004,-0.006,0,0.003,-0.008,-0.005,-0.002,,
785,0.001,0.006,0.003,-0.007,-0.003,-0.005,0,-0.001,0.001,-0.006,-0.004,0.002,-0.006,-0.002,0.005,-0.001,0.002,-0.007,0.002,-0.003,0.004,,
786,-0.001,0.002,0.001,-0.007,-0.012,-0.012,-0.008,-0.013,-0.014,-0.014,-0.014,0.002,-0.013,0,0.004,-0.005,-0.001,0,0,-0.001,-0.001,,
787,0.008,0.008,0.007,0.009,0.005,-0.004,0.006,0,0,0.001,-0.003,-0.001,-0.002,-0.009,0.01,-0.006,0,0.001,-0.004,-0.003,0.004,,
788,-0.001,-0.002,-0.01,0.005,0,-0.003,-0.006,-0.011,-0.014,-0.009,-0.009,-0.009,0.01,-0.003,-0.003,-0.005,-0.003,0.005,0,0.002,-0.008,,
789,-0.001,-0.003,-0.001,0.001,-0.002,-0.009,0.002,-0.014,-0.006,-0.007,-0.004,0,-0.001,-0.007,0.011,-0.016,0.008,-0.001,0.003,0.01,-0.005,,
790,0.004,-0.001,-0.004,0.007,-0.007,-0.001,-0.002,-0.004,-0.008,-0.001,-0.007,-0.008,-0.003,0.006,-0.001,-0.002,-0.004,0.007,-0.006,-0.004,-0.002,,
791,-0.008,-0.005,-0.013,-0.01,-0.011,-0.013,-0.015,-0.007,-0.012,-0.02,-0.018,-0.005,0.002,-0.002,-0.002,0.008,-0.005,-0.008,0.002,-0.011,0.005,,
792,-0.005,-0.002,-0.016,0.001,-0.008,-0.008,-0.017,-0.016,-0.012,-0.012,-0.023,-0.011,0.008,0,-0.009,0.001,0.004,0,-0.011,-0.006,-0.008,,
793,0.004,-0.005,0.008,0.005,0.002,0.002,-0.003,-0.006,-0.006,-0.002,-0.01,0.004,-0.006,0,-0.005,-0.003,0,0.004,-0.008,-0.005,-0.008,,
794,-0.002,-0.007,-0.002,0,-0.003,-0.009,-0.006,-0.013,-0.011,-0.014,-0.005,0,-0.001,-0.006,0.003,-0.007,0.002,-0.003,0.009,0.008,-0.004,,
795,-0.001,-0.002,-0.001,0,-0.006,-0.004,-0.004,-0.017,-0.011,-0.011,-0.015,0,-0.005,0.002,0,-0.013,0.006,0,-0.004,0.002,-0.013,,
796,0,-0.012,0.001,-0.004,-0.012,-0.007,-0.015,-0.011,-0.01,-0.014,-0.013,0.001,-0.013,0.005,-0.008,0.004,0.001,-0.004,0.001,-0.002,-0.004,,
797,0.007,-0.002,-0.003,-0.002,-0.007,-0.006,-0.011,-0.006,-0.01,-0.01,-0.006,-0.01,-0.004,0.001,-0.005,0.005,-0.004,0,0.004,0,-0.001,,
798,-0.006,-0.009,-0.011,-0.005,-0.012,-0.004,-0.015,-0.022,-0.005,-0.012,-0.014,-0.005,-0.001,0.008,-0.011,-0.007,0.017,-0.007,-0.002,0.007,-0.018,,
799,-0.014,-0.014,-0.01,-0.018,-0.003,-0.01,-0.021,-0.02,-0.005,-0.018,-0.021,0.004,0.007,-0.007,-0.011,0.001,0.015,-0.013,-0.003,-0.001,-0.01,,
800,-0.007,-0.008,-0.009,-0.015,-0.017,-0.011,-0.01,-0.013,-0.027,-0.017,-0.018,-0.002,-0.008,0.006,0.001,-0.003,-0.014,0.01,-0.001,-0.005,-0.001,,
