VAMAS Surface Chemical Analysis Standard Data Transfer Format 1988 May 4
Not Specified
Not Specified
Not Specified
Not Specified
3
Casa Info Follows CasaXPS Version 2.3.23PR1.0
0
SourceAnalyserAngle: Not Specified
NORM
REGULAR
0
1
Data Set
d
0
0
0
0
1
au.txt
au.txt
0
0
0
0
0
0
0
9
Casa Info Follows
0
0
1
CASA region (*Survey*) (*Shirley*) 971.8 981.4 1 2 0 0 0 -450 0 0 (*NoTag*) 0 0 0
2
CASA comp (*Survey*) (*GL(95)*) Area 1232352.9 1e-020 61733358 -1 1 MFWHM 0.54614463 0.12 3 -1 1 Position 974.83475 971.8 981.4 -1 1 RSF 1 MASS 0 INDEX -1 (*NoTag*) CONST (**) UNCORRECTEDRSF 0
CASA comp (*Survey*) (*GL(95)*) Area 940606.2 1e-020 61733358 -1 1 MFWHM 0.55426453 0.12 3 -1 1 Position 978.51132 971.8 981.4 -1 1 RSF 1 MASS 0 INDEX -1 (*NoTag*) CONST (**) UNCORRECTEDRSF 0

XPS
0
Al
1486.6
1e+037
1e+037
1e+037
1e+037
1e+037
FAT
1e+037
1e+037
1e+037
1e+037
1e+037
1e+037
1e+037
1e+037
Survey

-1
Kinetic Energy
d
951.62
0.02
1
Intensity
d
pulse counting
1
1
1e+037
1e+037
1e+037
1e+037
1
PROPAGATION_CONVERGED
d
1
1500
0
1
20815
20593.6
20764.9
20833.8
20749
20638.8
20605.6
21209.2
21336.9
21138.6
21014.1
21110.6
21073
20988.9
21062.5
21064.2
21155.3
21198.7
21140
21489.7
21975.5
22380
22379.7
21905.9
21954.4
22189.6
21669.4
21531.6
22134.2
22418.5
21988.6
21710.2
21434.2
21553.8
21451.5
21382
21341.5
21401.4
21418.6
21517.3
21376
21166.8
21597.1
21848.2
21284.1
20987
21067.9
21912.2
22322.2
22232.8
21944.6
22101.8
22163
22242.6
22292.8
22366.9
22353.7
22337
22541.4
23075.8
23178.8
23084.5
22954.2
23078.5
23085.1
22730.1
22527.1
22560.4
22659.4
22593.2
22363.6
22170
21892.1
22137
22817.8
22674.3
22369.3
21937.8
21717.1
21632
21739.2
22220.5
22909.1
22903.6
22606.9
22615.6
22617.3
22644.1
22624.4
22059.4
21791.4
22021.4
22325.9
22448.2
22766.2
22885.9
22987.1
23127.4
22550.1
21832.6
21858.9
22056.3
21885.5
21914.9
21902.7
21815.3
21801.2
22076.2
21843.5
21302.5
21107.1
21761.9
21809
21428.6
21423.6
21454
21600
22085.2
22209.5
21727.6
21321.7
21407.2
21650
21914.5
22193
22069.5
22088.6
22041.9
21789.9
21532.4
21411
21589.7
21551.9
21518.7
22186.5
22314.9
22243.2
22147.2
22196.2
22325
22155.5
21864.8
21519.5
21449.7
21633
21820
21834.1
21819.4
21781.3
21427.6
21124.5
21637.7
21751.4
21423.8
21509.7
21306.6
21367
21274.6
21107.7
21354.4
21892.4
22271.3
21921.8
21724.8
21740.9
21894.3
22129.7
22220
22427.6
22445.8
21599.2
21122.7
21237.5
21571.5
21526.6
21491
21323.3
21387.8
21548.7
21973
21857.2
21707.5
21525.1
21278.8
21101.1
20753.4
20682.5
21126.9
21806.7
21672.7
21779.2
21778.9
21296.3
20970.8
21242
21635
21473.9
21428.3
21520.3
21300.5
21319.1
21504.3
21704
21710.3
21467.7
21298.1
21677.3
22022
22307.7
22458.5
22253.5
21761.2
21605
22133.4
22219.1
21906.8
22043.5
22150.2
21701.7
21304.7
21006.6
21307.6
21529.8
21682.6
21665.8
21625.4
21769.2
21877.8
22070
22114
22478.2
22944.2
23267.9
23134
22835
22973
22763.8
22517
22606.4
22727.5
22768.8
22895.8
23374.9
23219.7
22853.6
22808
22811.3
22432.1
22754.6
23126.2
23444.3
23598.9
23267.6
22969.2
22878.8
22805.4
22847.7
23001.3
23073.7
23280.9
23783.1
24385.2
24505
23612.6
23032.5
22793.9
23284.7
23898
24105.7
23903.4
23971.9
23962.8
24193
24104.7
23817.8
23898.9
24058.2
24260
24500
24785.2
24745.9
24029.4
23948.6
24616.3
25214
25159.5
25364.1
25292.2
25183.9
25289.9
25994
26523.7
26697.2
27260.4
27255.3
26986.8
26797.7
26830.5
26822.8
26808.9
26974
27299.2
27803.6
28516.6
28897.3
29408.2
29808.5
30236.4
30549
31331.1
31912
31488.5
31724.9
32430.5
32680.2
32876.1
33657.5
34252.8
34191.5
33977
34251.1
35197.1
36191.5
37192.6
38483.6
39595.7
40094.8
40923.4
41533.5
42032.1
42973.6
44314.1
46077
47368.2
48287.1
49022
50206.4
51755.6
53686.3
55267.9
56578.1
57774.5
59387.9
60366.7
61162.6
63151.3
65880.3
67896.9
69326.7
69667.7
70897.3
73340.2
76156.2
79399
80334.6
80981
82273
83920.7
86294
87988.9
89198.6
90095.9
91169.9
93161.4
96669.3
99516.2
100791
101653
102131
102878
105291
107327
108625
110810
112050
112144
113542
115363
116614
117393
118554
119720
120543
121570
122186
121025
120444
120701
121501
121827
121645
121669
122570
123130
123919
124240
122928
122152
122626
123670
123922
123614
123368
123046
122506
122020
121967
121874
122266
123122
122637
122096
120942
120252
120755
121025
120477
120213
119613
119327
119249
119750
120315
120420
121001
120838
119865
118560
118665
118989
117837
116913
117619
117969
116844
116781
116858
115660
114989
114144
113487
113401
113635
113308
112559
112050
112000
111574
111014
110613
110078
108930
109047
109036
108868
108250
106618
106021
105829
105787
106340
106600
104786
103263
102112
101941
102758
102379
100803
98978.2
97487.1
97314
96877.5
96295.5
95612.3
94383.5
93229.8
92284.7
91246.9
90459.4
90451.6
89616.2
88988.1
89335
89527.5
88112.6
86347.6
85329.4
84872.4
83917.5
83687
83364.4
83020.5
82726
82176.1
81132.5
80208.4
80200.2
79510.2
78260.9
77245.4
77038.9
77115.3
76325
76264.9
76327.7
76169.9
75198.9
74267.2
73430.6
73269.7
73708.3
73854.4
73414.6
72031.6
70604.4
69191.8
68960.5
68739.2
68052.4
68525.4
69234.3
69108
68083
66540.6
65757
65907.2
66171.8
66440
65948.3
64596.6
63905.2
64382.3
65175.4
65672.8
65290
64536.5
63948.3
63109.8
62044.7
61216.2
60824.1
60878.5
60239.7
59529.2
59039.3
59526
59839.9
59427.6
58642.4
58523.5
58647.7
58275.4
57589.2
57224.4
57542.3
57467
56658
56329.6
56518
56340.8
55540.5
54893
54917.7
54972.4
54859.8
55038.5
54833
54032.3
53783.9
53286.9
53346.4
53722.8
54233.2
54151.5
53752.9
53922.5
54182.2
54215.1
53364.5
52976.3
53477.5
53012.7
51759.3
50889
50786.2
51219.7
51495.2
50871.2
50607.6
51091.8
51052
51044.2
50814.4
50910.1
51049.5
50535.1
50045.9
49814.9
49762.8
49665.5
49598.9
49153.9
49497.5
49884.2
49940.3
50270.9
50620.2
50792.5
50015
49399.4
49496.5
50100.6
49892
48640.5
48311.6
48421
48640.8
48968
48990.6
49663.7
49533.2
48425.6
48026.9
48573.6
48542.8
48276.6
48724.4
48670.4
48640.8
49313.4
48783.9
48147
47653.3
47752
47283.4
46962.3
46828.3
47510.4
48043.8
48312.2
48927.3
48998.9
47951.7
47324.1
47543.6
47410
47537.5
47607.9
46755.9
46547.3
46629.1
46957.7
47005
46793.9
46751.8
46747.8
46810.4
47042.7
47336.2
46406.2
45512.2
45556.2
45773.8
45849.8
45783.3
45478.4
46021.8
46396.8
45914.1
44894.7
44386.7
44383.6
44984.3
45668.9
45356
44394.2
44028.6
44657.8
45151.6
45414.9
44914.5
44456.7
44078.4
43913.7
44051.5
43943.4
44278.8
44657.5
44734.8
44972.7
45408.9
44970.8
44910.1
45086.7
44215.3
43789.6
44274.4
43894.5
43324.8
43224.5
44068.4
44406.2
43989.5
43747.6
43413
43149.7
43705.8
44377.8
44242.7
43796.4
43459.9
43861.8
43525.8
43192.3
43557.6
43463.8
43247.7
43490.1
44093.8
43513.4
42594.4
43122.8
43599.3
43065.2
42783
42512.8
42689
43108.6
42469.7
42033
42330.4
43095.1
43298.8
43647.8
44064.9
43329.2
43227.3
43727.4
44239.9
43534.3
42433.9
42166.4
42270.7
42089
42299
41765.8
41496.6
41917.1
42376.1
41673.9
40970
40764
40668.9
40763.6
40954.6
41752
42659
43432.6
43386.7
43450.2
43432.9
42548.5
42049.8
41808
42265.1
42807.8
43138.8
42740.1
42001.3
41277.7
41701.3
42077.6
42454.4
43135.2
43377.1
43102.7
42976.3
43236.5
42649.8
42026.2
42193.3
42434.9
42764.7
42797.5
42255.1
42235.9
42800.9
43170.2
43280.6
43054.5
42651.5
42743.4
43244.1
43975.2
43855
43349.2
43111
42667.7
41809.3
42115.3
43346.2
44327.9
44113.1
42836.2
42782.4
43127.5
43391.4
43124.5
42595
42793.2
43117.1
43188.1
42949.6
42966.7
43286.8
43685
43895.7
44269.3
44450.4
44275.6
43810.8
42994.4
42563.6
41855.7
42279.4
42589.5
42606.3
42931.9
43834.7
44669
44400.1
43874
43555.1
43938.4
44421.1
43949.8
43291.4
43654.1
43835.3
43528.9
43138.3
43156.7
43846.9
44450.6
44717.9
44529.6
44253.6
44446
44949.7
45396
45264.8
45359.1
45538
45265
45178.5
44896.9
44768.2
45022
44625.2
44475.8
45290.6
45878.1
45647
45375.3
45913.9
46487.4
46140.4
45033.4
44567.7
45259.1
45587.6
44898.8
44780.6
45332.4
46019.3
46746.3
46994.7
46765.6
46531.7
46461.8
46577.3
46176.8
45758
45827.1
46951
47225.6
47333.5
47093.9
46856.1
46752.7
47035.2
47194.2
47185.4
47067
46806.4
46559.1
46759.5
47118.4
47164
47677.8
47749.6
47943.6
47890.2
47942.6
47935.3
48047.8
47608
47174.7
47257.3
47745.9
47779.4
47689.9
47668.1
47957.6
48244.4
48551
47367.6
46690.5
46155.6
45604.4
46432.5
47581.4
47912.8
47599.4
46922.9
47166.8
47697.4
48346.8
48069.8
47643.5
48464.2
48435.8
47566.8
46825.5
46877.6
47007.4
46921
47003.1
47490.9
47937.9
48330.8
48009.5
47240.7
46844.8
46758.8
46995.1
47167.9
47350.5
47301.7
47788.1
48272.2
48232.8
47719.6
47279.3
47151
47750.6
47987.4
47106.5
46617
46735.9
47409.5
48779.8
49034
48839.2
49035.4
48984.8
48515
48530.1
48538.8
48163.9
47539.1
47609.1
47712.8
47975.1
48493
48402.9
47632.9
47505
48052.4
48780
48643
48363.4
48224.4
47940.4
47978.4
48262.5
47898.4
47848.6
48044.1
47897
47711.7
48106.2
48237.2
48086.4
48642.2
48865.8
47875.3
47636.3
63493.1
62634.2
62243.3
62396.4
62824
62398.1
63016.6
64320
64369.7
64203.9
64137.1
63578.7
63576.7
64140.7
64710.2
64748.1
64305.6
64110.7
64401
65173.8
65795.4
66328.5
67305.3
66803.1
65987.7
66142.3
66913.6
67298.3
66665.6
66046.6
67156
67635.6
68774.9
69409.6
68808.3
68510
68716.9
69633
69804.4
69861.9
70295.8
70720.7
71250.8
72128.6
72028
71508.4
72087
73150.9
73742.8
73663.5
73658.7
73835.2
73997
74513.4
75062
75145
75047.3
75090.7
75961.2
76277.2
76508.3
76960.1
77805.2
79388.4
79477.2
79534.2
80208.8
81334.8
82001.5
82154.7
82923.5
83691
84350.4
85280.1
86083
85836.3
85775.1
87296
88693.7
88781.5
88370.5
89059.7
89653.9
90806.6
91860.8
92348.3
92948.6
93477.7
93980.2
96148.8
97422.5
97032.6
97713.9
99787.6
101348
102163
103293
104280
106134
107860
109582
111693
114114
115866
117521
119039
122502
125464
127497
129274
131482
133741
136258
139439
144236
149345
154909
160501
166066
171961
177250
183228
190595
199542
209657
219905
231004
243482
257495
272999
290223
309233
331249
355350
383017
412389
445259
480987
517750
557054
599393
647845
695140
740148
787618
839572
892093
944713
998661
1.05171e+006
1.10531e+006
1.16075e+006
1.21483e+006
1.27058e+006
1.33218e+006
1.39783e+006
1.46323e+006
1.53023e+006
1.59909e+006
1.66231e+006
1.71793e+006
1.76265e+006
1.79562e+006
1.81116e+006
1.80822e+006
1.78238e+006
1.73903e+006
1.68262e+006
1.61138e+006
1.52944e+006
1.43943e+006
1.34854e+006
1.25322e+006
1.15878e+006
1.07474e+006
999751
929422
864186
802199
748053
698326
651252
610827
572672
539964
512449
486597
460234
435886
414206
396232
379102
362791
346649
331917
320377
309468
298936
288702
279953
271166
262788
255071
247538
240701
236304
231349
226242
222750
219255
215688
212240
208773
205445
201932
199232
195395
191671
190536
189829
186642
183025
180932
179637
177823
175907
174159
173584
173539
173467
173739
173186
170516
169181
169376
168048
166797
164692
163490
163185
162846
162619
162311
162175
161917
161262
161450
162076
161935
161789
162899
162961
162376
161974
161889
161975
161395
161225
160690
161072
162070
163013
164992
166393
166701
166629
166930
166336
165439
166151
167246
168884
170914
172140
173392
174472
175386
176535
178505
180630
181479
182173
183906
185364
187351
189431
189638
190717
192418
194028
196009
197537
199441
202041
205482
208953
213060
214663
215137
217291
221683
225466
229195
233278
237985
243355
249503
258270
267048
275095
283354
292323
304089
315894
327613
341639
359211
377936
398725
421085
444915
470565
499565
530894
563352
599276
638352
676218
711771
749598
788100
826552
868176
912333
950767
989790
1.03013e+006
1.07318e+006
1.11968e+006
1.1694e+006
1.22017e+006
1.27011e+006
1.31588e+006
1.35677e+006
1.39669e+006
1.42838e+006
1.45063e+006
1.45946e+006
1.45272e+006
1.43443e+006
1.4038e+006
1.3588e+006
1.30605e+006
1.24647e+006
1.18019e+006
1.109e+006
1.04169e+006
979503
919985
861811
807881
757557
710137
669244
632402
598045
566977
539857
515707
492819
472061
453210
436697
421994
406810
390941
379326
369254
359005
347955
338423
330468
323070
315150
307572
301778
295534
291130
287541
281457
275562
272515
270035
265060
260675
256653
254872
252965
249703
247232
245693
244258
241443
239130
236729
235932
234514
232674
232171
231735
230876
229246
226729
224955
224213
224180
223140
222147
223231
222644
220394
218000
216207
215459
214423
214354
214866
214991
214167
213742
213427
212297
211975
211758
210341
209922
210448
211216
212103
211562
209595
208587
208643
209031
209889
211634
213157
213049
212736
211806
212264
212288
211067
210000
209232
208739
209959
211046
210481
211695
213063
213435
213349
212956
213690
213766
213786
213543
212495
212537
213171
213660
212519
211382
210702
212508
214276
215114
215098
215131
214242
212605
211639
211833
213040
214691
215135
214171
214086
213517
214216
214733
214253
214014
214370
214524
215327
214841
214329
214399
214672
end of experiment
