VAMAS Surface Chemical Analysis Standard Data Transfer Format 1988 May 4
Not Specified
Not Specified
Not Specified
Not Specified
3
Casa Info Follows CasaXPS Version 2.3.23PR1.0
0
SourceAnalyserAngle: Not Specified
NORM
REGULAR
0
1
Data Set
d
0
0
0
0
1
mn3d.txt
mn3d.txt
0
0
0
0
0
0
0
20
Casa Info Follows
0
0
1
CASA region (*Survey*) (*Shirley*) 1429.6 1443.6 1 2 0 0 0 -450 0 0 (*NoTag*) 0 0 0
13
CASA comp (*MnIV*) (*GL(30)*) Area 53496.466 1e-020 3575800.8 -1 1 MFWHM 1.6024871 1 2 -1 1 Position 1437.0779 1436.66 1437.26 -1 1 RSF 1 MASS 0 INDEX -1 (*NoTag*) CONST (**) UNCORRECTEDRSF 0
CASA comp (*MnIV-2*) (*GL(30)*) Area 13802.088 1e-020 3575800.8 0 0.258 MFWHM 1.6024871 0.548 13.7 0 1 Position 1435.7279 0 0 0 -1.35 RSF 1 MASS 0 INDEX -1 (*NoTag*) CONST (**) UNCORRECTEDRSF 0
CASA comp (*MnIV-3*) (*GL(30)*) Area 5082.1643 1e-020 3575800.8 0 0.095 MFWHM 1.6024871 0.548 13.7 0 1 Position 1434.3379 0 0 0 -2.74 RSF 1 MASS 0 INDEX -1 (*NoTag*) CONST (**) UNCORRECTEDRSF 0
CASA comp (*MnIV-4*) (*GL(30)*) Area 2781.8162 1e-020 3575800.8 0 0.052 MFWHM 1.6024871 0.548 13.7 0 1 Position 1432.9379 0 0 0 -4.14 RSF 1 MASS 0 INDEX -1 (*NoTag*) CONST (**) UNCORRECTEDRSF 0
CASA comp (*MnIV-5*) (*GL(30)*) Area 534.96466 1e-020 3575800.8 0 0.01 MFWHM 1.6024871 0.548 13.7 0 1 Position 1431.4579 0 0 0 -5.62 RSF 1 MASS 0 INDEX -1 (*NoTag*) CONST (**) UNCORRECTEDRSF 0
CASA comp (*MnIII*) (*GL(30)*) Area 119609.92 1e-020 3575800.8 -1 1 MFWHM 1.4451229 0.548 13.7 0 0.9018 Position 1438.2279 0 0 0 1.15 RSF 1 MASS 0 INDEX -1 (*NoTag*) CONST (**) UNCORRECTEDRSF 0
CASA comp (*MnIII-2*) (*GL(30)*) Area 50953.824 1e-020 3575800.8 5 0.426 MFWHM 1.445187 0.548 13.7 0 0.90184 Position 1437.0979 0 0 0 0.02 RSF 1 MASS 0 INDEX -1 (*NoTag*) CONST (**) UNCORRECTEDRSF 0
CASA comp (*MnIII-3*) (*GL(30)*) Area 27869.11 1e-020 3575800.8 5 0.233 MFWHM 1.4451229 0.548 13.7 0 0.9018 Position 1435.9079 0 0 0 -1.17 RSF 1 MASS 0 INDEX -1 (*NoTag*) CONST (**) UNCORRECTEDRSF 0
CASA comp (*MnIII-4*) (*GL(30)*) Area 11602.162 1e-020 3575800.8 5 0.097 MFWHM 1.4451229 0.548 13.7 0 0.9018 Position 1434.4979 0 0 0 -2.58 RSF 1 MASS 0 INDEX -1 (*NoTag*) CONST (**) UNCORRECTEDRSF 0
CASA comp (*MnIII-5*) (*GL(30)*) Area 119.60992 1e-020 3575800.8 5 0.001 MFWHM 1.2387225 0.548 13.7 0 0.773 Position 1430.4479 0 0 0 -6.63 RSF 1 MASS 0 INDEX -1 (*NoTag*) CONST (**) UNCORRECTEDRSF 0
CASA comp (*MnII*) (*GL(30)*) Area 4569.554 0 100000 -1 1 MFWHM 1.4451229 0 2 0 0.9018 Position 1439.5579 0 0 0 2.48 RSF 1 MASS 0 INDEX -1 (*NoTag*) CONST (**) UNCORRECTEDRSF 0
CASA comp (*MnII-1*) (*GL(30)*) Area 1471.3964 1e-020 3575800.8 10 0.322 MFWHM 1.6437116 0.548 13.7 0 1.0257253 Position 1438.8579 0 0 0 1.78 RSF 1 MASS 0 INDEX -1 (*NoTag*) CONST (**) UNCORRECTEDRSF 0
CASA comp (*MnII-2*) (*GL(30)*) Area 578.25878 1e-020 3575800.8 10 0.126546 MFWHM 3.5138489 0.548 13.7 0 2.192747 Position 1437.4279 0 0 0 0.35 RSF 1 MASS 0 INDEX -1 (*NoTag*) CONST (**) UNCORRECTEDRSF 0

XPS
0
Al
1486.6
1e+037
1e+037
1e+037
1e+037
1e+037
FAT
1e+037
1e+037
1e+037
1e+037
1e+037
1e+037
1e+037
1e+037
Survey

-1
Kinetic Energy
d
1415.8747
0.02
1
Intensity
d
pulse counting
1
1
1e+037
1e+037
1e+037
1e+037
1
PROPAGATION_CONVERGED
d
1
1501
0
1
50424
50132.6
49878.9
50012.2
50275.3
50599.2
50527.7
50006.4
49778.5
49754.3
50147.7
50620.6
50446.2
50145
50116.8
50020.4
50158.4
50458.8
50834.8
50907.3
50269.2
49990.4
50048
50514.9
50851.6
50484
50086.6
50389.8
50412.7
50447.3
50699.7
50674
50595.9
50429.6
50231.9
49759.7
49200.6
49467.5
49685
49958.3
49895.3
49355.3
49365.4
49623.5
50030.4
49957.3
49200.4
48876
49699
50504.1
50782.4
50667.9
50999.8
50763.7
49909.6
49425.8
49413.6
49786.6
50301.1
50156.9
49384.6
49420.1
50465.6
51229.4
51246.1
50631.9
50120.4
49870.2
50080.1
49662.3
49274.4
49677.9
50150.6
50064.4
50028.9
51052.7
52025.2
51627.7
50577.7
49964.8
50512.7
50233.8
49757.4
49639.5
50120.9
51203.9
51270.2
50706.9
50593.3
51231.3
51469
50613.6
49431.7
49253.2
49608.8
49756.6
49920.4
50146.8
50107.6
49870.9
50548.4
50829.8
51070.9
50997.2
50580.9
50055
50274.9
50672.9
50005
49564.1
49848
50025.3
49844.8
49639.6
49140
49380.6
50556.2
51549.3
50799.2
49914.7
49629
50259.2
50828.2
50789.2
50743.6
50916.4
50637.6
50240.7
50409
50846.9
51225.3
50912
50582.1
50612.8
50352.8
50128.4
50360.7
50458.7
50647.5
50322.6
49907.2
49887.9
50110.3
49953.6
49610
49103
49439.7
49828.6
50257
49790.7
48919
49511.9
50210.9
50293
49889.8
48869.1
48909.6
49393.1
49898
49461.5
49433.2
50455.5
51110.3
50687.9
50190.3
49846.1
50180
50280.5
50000.7
49367.7
49311.4
50167.2
50418.3
50717.2
51403.6
51357.6
50545.9
50458.7
50449.2
50404.9
50091.8
50349.3
50452.2
50620.5
50875.2
50904.9
51123.9
51221.4
51720.4
51454.5
50927.1
50565.5
50759.3
50620.4
50568.5
50999.9
51292.9
51233.5
50377.9
50176.6
50503.5
51111
50885.7
50129.7
49532.6
49384.9
49591.3
50184.1
50403.7
50988.2
50853.1
50291.3
49646.4
49696.3
50214.2
50484.2
50548.8
50518.2
50453.8
50303.9
50583.6
50571.6
49966.7
49955.3
50307.7
50439.3
50840
50732.8
49969.7
49077.4
49452.6
50260
50881.8
50753.9
50073.3
49671
49766.4
49580.7
49559.2
49373.1
49870.9
50345.3
51081
51422.4
51704.8
51612.1
50780.5
50608.7
50778.9
51220
51498.7
50840.3
50306.3
50089.6
49767.9
50120
50726.6
51491
51597.8
51066.6
50620.7
50977.3
50681.9
50644.9
50719.5
50492.6
50491.8
50262.4
50414.4
51678.8
51919.8
51375.1
51060
51076.6
51162
51237.7
51400.4
51139.7
50777.6
50195.2
50731.5
51068.8
50724.3
50607.8
51054.4
51766.2
51766.6
50875.4
50363
50784.3
51253.7
51092.3
50947.4
50797.2
50761
50764.4
51503.6
51702.4
51262
50425.7
49958.9
50636
51342.8
51827.5
51050.9
50002
50233.3
50522.2
50317.7
49726.3
50144.2
50771.3
50894.2
50846.5
50864.9
50660.3
50653.8
50713.6
50751.9
50800.9
51212
51142.8
50780.9
50483.8
50807.1
50563.9
50119.8
50025.8
50359.3
49988.8
49336.7
49199.9
49313.1
49855
50264.5
50086.7
49568.9
49394.6
49347.6
49747.8
50175.6
50181
50352.7
50540.6
50376.6
50202.3
50192.8
50468.5
50500.9
49816.6
49664.9
50625.5
51480
51328.2
50360.5
49895.7
49925.9
49581
49008.3
49162.5
50260.6
50442.3
49978
50146.2
50352.5
50396.9
50262.5
50544.1
50479.6
49597.6
49644.9
49652.8
49730.8
49784.9
49623.4
50382.2
50879.2
50819.6
50393.2
49666.3
49021.1
49146.1
49281
49245.7
49540.1
49967.2
49434.4
48691.6
48930.6
49715.7
49698.9
49219.8
49556.4
50099.6
50051.8
49684.6
49545.4
49708.3
49542.2
49087.1
49548.6
50089.2
49931.2
49307.9
49392.5
49417.6
49659.8
49887.8
50035.6
49925.1
49447.7
49127.3
49237.5
49539.7
49648.3
49193.1
48933.8
48922.4
49190.7
49476.8
49780.4
49321.2
48841.4
48737.7
48739.8
49656.1
50462.4
49874.1
48867.4
48671.1
48816.9
48580.1
48731.4
48753.1
48786.6
49214.8
49459.8
49557
49451.8
49117.6
49121.1
49696.7
50221.2
50363.5
50215.3
49339.5
48538.5
48828.3
49282.2
49772.8
49677.6
49495
49251.1
49549.1
49328.3
48372.7
48399.8
48862.6
48688.5
48944.9
49528.7
49744
49403.4
48925.2
48794.4
48962.2
49501.7
49497.9
49084.2
48683.9
48922.5
49303.8
48987
48801.3
48489.2
48989.7
49460.8
49204.4
48622.1
47655.9
47433.4
47762.1
47681.9
47538.4
47790.8
48315.7
48287.8
47894.5
48405.2
48906.7
48677.8
48001.6
48054.3
48944.8
49020.3
49359.4
49524.9
48729.6
47861.7
47935.8
47944.8
47872.3
47636.3
47875.3
48865.8
48642.2
48086.4
48237.2
48106.2
47711.7
47897
48044.1
47848.6
47898.4
48262.5
47978.4
47940.4
48224.4
48363.4
48643
48780
48052.4
47505
47632.9
48402.9
48493
47975.1
47712.8
47609.1
47539.1
48163.9
48538.8
48530.1
48515
48984.8
49035.4
48839.2
49034
48779.8
47409.5
46735.9
46617
47106.5
47987.4
47750.6
47151
47279.3
47719.6
48232.8
48272.2
47788.1
47301.7
47350.5
47167.9
46995.1
46758.8
46844.8
47240.7
48009.5
48330.8
47937.9
47490.9
47003.1
46921
47007.4
46877.6
46825.5
47566.8
48435.8
48464.2
47643.5
48069.8
48346.8
47697.4
47166.8
46922.9
47599.4
47912.8
47581.4
46432.5
45604.4
46155.6
46690.5
47367.6
48551
48244.4
47957.6
47668.1
47689.9
47779.4
47745.9
47257.3
47174.7
47608
48047.8
47935.3
47942.6
47890.2
47943.6
47749.6
47677.8
47164
47118.4
46759.5
46559.1
46806.4
47067
47185.4
47194.2
47035.2
46752.7
46856.1
47093.9
47333.5
47225.6
46951
45827.1
45758
46176.8
46577.3
46461.8
46531.7
46765.6
46994.7
46746.3
46019.3
45332.4
44780.6
44898.8
45587.6
45259.1
44567.7
45033.4
46140.4
46487.4
45913.9
45375.3
45647
45878.1
45290.6
44475.8
44625.2
45022
44768.2
44896.9
45178.5
45265
45538
45359.1
45264.8
45396
44949.7
44446
44253.6
44529.6
44717.9
44450.6
43846.9
43156.7
43138.3
43528.9
43835.3
43654.1
43291.4
43949.8
44421.1
43938.4
43555.1
43874
44400.1
44669
43834.7
42931.9
42606.3
42589.5
42279.4
41855.7
42563.6
42994.4
43810.8
44275.6
44450.4
44269.3
43895.7
43685
43286.8
42966.7
42949.6
43188.1
43117.1
42793.2
42595
43124.5
43391.4
43127.5
42782.4
42836.2
44113.1
44327.9
43346.2
42115.3
41809.3
42667.7
43111
43349.2
43855
43975.2
43244.1
42743.4
42651.5
43054.5
43280.6
43170.2
42800.9
42235.9
42255.1
42797.5
42764.7
42434.9
42193.3
42026.2
42649.8
43236.5
42976.3
43102.7
43377.1
43135.2
42454.4
42077.6
41701.3
41277.7
42001.3
42740.1
43138.8
42807.8
42265.1
41808
42049.8
42548.5
43432.9
43450.2
43386.7
43432.6
42659
41752
40954.6
40763.6
40668.9
40764
40970
41673.9
42376.1
41917.1
41496.6
41765.8
42299
42089
42270.7
42166.4
42433.9
43534.3
44239.9
43727.4
43227.3
43329.2
44064.9
43647.8
43298.8
43095.1
42330.4
42033
42469.7
43108.6
42689
42512.8
42783
43065.2
43599.3
43122.8
42594.4
43513.4
44093.8
43490.1
43247.7
43463.8
43557.6
43192.3
43525.8
43861.8
43459.9
43796.4
44242.7
44377.8
43705.8
43149.7
43413
43747.6
43989.5
44406.2
44068.4
43224.5
43324.8
43894.5
44274.4
43789.6
44215.3
45086.7
44910.1
44970.8
45408.9
44972.7
44734.8
44657.5
44278.8
43943.4
44051.5
43913.7
44078.4
44456.7
44914.5
45414.9
45151.6
44657.8
44028.6
44394.2
45356
45668.9
44984.3
44383.6
44386.7
44894.7
45914.1
46396.8
46021.8
45478.4
45783.3
45849.8
45773.8
45556.2
45512.2
46406.2
47336.2
47042.7
46810.4
46747.8
46751.8
46793.9
47005
46957.7
46629.1
46547.3
46755.9
47607.9
47537.5
47410
47543.6
47324.1
47951.7
48998.9
48927.3
48312.2
48043.8
47510.4
46828.3
46962.3
47283.4
47752
47653.3
48147
48783.9
49313.4
48640.8
48670.4
48724.4
48276.6
48542.8
48573.6
48026.9
48425.6
49533.2
49663.7
48990.6
48968
48640.8
48421
48311.6
48640.5
49892
50100.6
49496.5
49399.4
50015
50792.5
50620.2
50270.9
49940.3
49884.2
49497.5
49153.9
49598.9
49665.5
49762.8
49814.9
50045.9
50535.1
51049.5
50910.1
50814.4
51044.2
51052
51091.8
50607.6
50871.2
51495.2
51219.7
50786.2
50889
51759.3
53012.7
53477.5
52976.3
53364.5
54215.1
54182.2
53922.5
53752.9
54151.5
54233.2
53722.8
53346.4
53286.9
53783.9
54032.3
54833
55038.5
54859.8
54972.4
54917.7
54893
55540.5
56340.8
56518
56329.6
56658
57467
57542.3
57224.4
57589.2
58275.4
58647.7
58523.5
58642.4
59427.6
59839.9
59526
59039.3
59529.2
60239.7
60878.5
60824.1
61216.2
62044.7
63109.8
63948.3
64536.5
65290
65672.8
65175.4
64382.3
63905.2
64596.6
65948.3
66440
66171.8
65907.2
65757
66540.6
68083
69108
69234.3
68525.4
68052.4
68739.2
68960.5
69191.8
70604.4
72031.6
73414.6
73854.4
73708.3
73269.7
73430.6
74267.2
75198.9
76169.9
76327.7
76264.9
76325
77115.3
77038.9
77245.4
78260.9
79510.2
80200.2
80208.4
81132.5
82176.1
82726
83020.5
83364.4
83687
83917.5
84872.4
85329.4
86347.6
88112.6
89527.5
89335
88988.1
89616.2
90451.6
90459.4
91246.9
92284.7
93229.8
94383.5
95612.3
96295.5
96877.5
97314
97487.1
98978.2
100803
102379
102758
101941
102112
103263
104786
106600
106340
105787
105829
106021
106618
108250
108868
109036
109047
108930
110078
110613
111014
111574
112000
112050
112559
113308
113635
113401
113487
114144
114989
115660
116858
116781
116844
117969
117619
116913
117837
118989
118665
118560
119865
120838
121001
120420
120315
119750
119249
119327
119613
120213
120477
121025
120755
120252
120942
122096
122637
123122
122266
121874
121967
122020
122506
123046
123368
123614
123922
123670
122626
122152
122928
124240
123919
123130
122570
121669
121645
121827
121501
120701
120444
121025
122186
121570
120543
119720
118554
117393
116614
115363
113542
112144
112050
110810
108625
107327
105291
102878
102131
101653
100791
99516.2
96669.3
93161.4
91169.9
90095.9
89198.6
87988.9
86294
83920.7
82273
80981
80334.6
79399
76156.2
73340.2
70897.3
69667.7
69326.7
67896.9
65880.3
63151.3
61162.6
60366.7
59387.9
57774.5
56578.1
55267.9
53686.3
51755.6
50206.4
49022
48287.1
47368.2
46077
44314.1
42973.6
42032.1
41533.5
40923.4
40094.8
39595.7
38483.6
37192.6
36191.5
35197.1
34251.1
33977
34191.5
34252.8
33657.5
32876.1
32680.2
32430.5
31724.9
31488.5
31912
31331.1
30549
30236.4
29808.5
29408.2
28897.3
28516.6
27803.6
27299.2
26974
26808.9
26822.8
26830.5
26797.7
26986.8
27255.3
27260.4
26697.2
26523.7
25994
25289.9
25183.9
25292.2
25364.1
25159.5
25214
24616.3
23948.6
24029.4
24745.9
24785.2
24500
24260
24058.2
23898.9
23817.8
24104.7
24193
23962.8
23971.9
23903.4
24105.7
23898
23284.7
22793.9
23032.5
23612.6
24505
24385.2
23783.1
23280.9
23073.7
23001.3
22847.7
22805.4
22878.8
22969.2
23267.6
23598.9
23444.3
23126.2
22754.6
22432.1
22811.3
22808
22853.6
23219.7
23374.9
22895.8
22768.8
22727.5
22606.4
22517
22763.8
22973
22835
23134
23267.9
22944.2
22478.2
22114
22070
21877.8
21769.2
21625.4
21665.8
21682.6
21529.8
21307.6
21006.6
21304.7
21701.7
22150.2
22043.5
21906.8
22219.1
22133.4
21605
21761.2
22253.5
22458.5
22307.7
22022
21677.3
21298.1
21467.7
21710.3
21704
21504.3
21319.1
21300.5
21520.3
21428.3
21473.9
21635
21242
20970.8
21296.3
21778.9
21779.2
21672.7
21806.7
21126.9
20682.5
20753.4
21101.1
21278.8
21525.1
21707.5
21857.2
21973
21548.7
21387.8
21323.3
21491
21526.6
21571.5
21237.5
21122.7
21599.2
22445.8
22427.6
22220
22129.7
21894.3
21740.9
21724.8
21921.8
22271.3
21892.4
21354.4
21107.7
21274.6
21367
21306.6
21509.7
21423.8
21751.4
21637.7
21124.5
21427.6
21781.3
21819.4
21834.1
21820
21633
21449.7
21519.5
21864.8
22155.5
22325
22196.2
22147.2
22243.2
22314.9
22186.5
21518.7
21551.9
21589.7
21411
21532.4
21789.9
22041.9
22088.6
22069.5
22193
21914.5
21650
21407.2
21321.7
21727.6
22209.5
22085.2
21600
21454
21423.6
21428.6
21809
21761.9
21107.1
21302.5
21843.5
22076.2
21801.2
21815.3
21902.7
21914.9
21885.5
22056.3
21858.9
21832.6
22550.1
23127.4
22987.1
22885.9
22766.2
22448.2
22325.9
22021.4
21791.4
22059.4
22624.4
22644.1
22617.3
22615.6
22606.9
22903.6
22909.1
22220.5
21739.2
21632
21717.1
21937.8
22369.3
22674.3
22817.8
22137
21892.1
22170
22363.6
22593.2
22659.4
22560.4
22527.1
22730.1
23085.1
23078.5
22954.2
23084.5
23178.8
23075.8
22541.4
22337
22353.7
22366.9
22292.8
22242.6
22163
22101.8
21944.6
22232.8
22322.2
21912.2
21067.9
20987
21284.1
21848.2
21597.1
21166.8
21376
21517.3
21418.6
21401.4
21341.5
21382
21451.5
21553.8
21434.2
21710.2
21988.6
22418.5
22134.2
21531.6
21669.4
22189.6
21954.4
21905.9
22379.7
22380
21975.5
21489.7
21140
21198.7
21155.3
21064.2
21062.5
20988.9
21073
21110.6
21014.1
21138.6
21336.9
21209.2
20605.6
20638.8
20749
20833.8
20764.9
20593.6
20815
end of experiment
